Time (s),ECG (V),PPG_Red,PPG_IR
0.000000,0.109673,344.656247,261.880579
0.008000,0.141900,340.622459,259.486659
0.016000,0.161286,338.713611,256.699811
0.024000,0.241904,340.576635,256.448785
0.032000,0.277404,345.199009,262.557468
0.040000,0.209677,343.459900,262.034200
0.048000,0.164509,340.349275,261.597748
0.056000,0.293518,344.061007,259.613583
0.064000,0.325795,342.000503,264.703977
0.072000,0.322573,340.997252,262.762233
0.080000,0.354800,337.463301,267.424659
0.088000,0.509641,340.367444,257.704903
0.096000,0.190291,346.166929,263.990336
0.104000,0.264514,337.723187,256.441252
0.112000,0.290295,338.188749,261.369710
0.120000,0.167732,339.562818,258.089830
0.128000,0.148345,339.279369,264.222424
0.136000,0.238682,336.960487,258.872206
0.144000,0.358022,338.479249,258.478355
0.152000,0.154841,332.843506,264.150552
0.160000,0.390300,336.480611,266.597550
0.168000,0.358022,339.529531,260.931112
0.176000,0.554809,333.741936,259.724747
0.184000,0.303186,340.446707,258.106366
0.192000,0.761263,332.297602,262.985095
0.200000,1.451627,336.717360,259.891019
0.208000,1.887095,336.776473,264.513203
0.216000,1.193559,334.538778,260.161079
0.224000,0.351577,339.044377,256.948232
0.232000,0.216123,336.233311,259.812949
0.240000,0.296741,336.829417,263.517082
0.248000,0.454804,338.786906,261.504603
0.256000,0.509641,343.150418,261.896213
0.264000,0.396745,338.995658,254.051201
0.272000,0.770932,340.302172,258.858432
0.280000,0.635477,335.831833,261.424040
0.288000,0.812877,337.685608,262.026971
0.296000,0.912882,334.812752,267.322564
0.304000,0.790318,337.079831,261.228258
0.312000,1.064500,335.164399,261.107004
0.320000,1.048386,338.962914,263.829777
0.328000,1.309677,339.817999,260.779784
0.336000,1.490300,339.789581,265.947405
0.344000,1.219341,339.319700,264.273871
0.352000,1.648363,338.288175,265.845135
0.360000,1.461295,342.105166,261.292505
0.368000,1.435463,340.858623,267.482738
0.376000,1.648363,336.936111,265.899752
0.384000,1.490300,334.859498,262.554985
0.392000,1.606468,331.251011,265.257744
0.400000,1.899986,335.818889,264.048075
0.408000,1.741923,339.169128,257.298396
0.416000,1.683864,337.974676,266.800826
0.424000,1.690309,335.633885,261.003332
0.432000,1.677418,335.072553,263.992489
0.440000,1.706473,335.899915,266.674468
0.448000,1.548409,336.532009,264.594666
0.456000,1.503241,342.409889,264.471954
0.464000,1.587082,336.483325,265.026083
0.472000,1.580636,335.433433,262.704367
0.480000,1.564523,339.478547,262.253672
0.488000,1.554855,348.647568,260.625561
0.496000,1.683864,339.611603,266.590928
0.504000,1.699977,338.599056,263.767591
0.512000,1.770977,335.865162,264.550388
0.520000,1.806477,339.282237,260.803714
0.528000,1.803204,339.523206,263.559078
0.536000,1.674195,343.626630,266.331389
0.544000,2.106441,338.392640,259.856124
0.552000,1.809700,334.372684,272.807696
0.560000,1.899986,340.142882,264.649012
0.568000,2.235500,336.018257,266.334016
0.576000,2.012932,337.694131,272.126936
0.584000,2.177441,335.300346,261.855926
0.592000,2.103218,340.182827,264.775213
0.600000,2.274223,342.146701,265.069258
0.608000,2.183886,338.152722,261.852428
0.616000,2.203223,341.706854,264.069526
0.624000,2.190332,341.504742,265.991642
0.632000,2.035491,335.797247,260.459611
0.640000,1.977432,341.537646,265.491269
0.648000,1.980655,335.928576,265.226261
0.656000,2.041936,346.358328,263.145916
0.664000,1.899986,335.592347,264.055061
0.672000,2.029046,333.837894,266.342623
0.680000,1.903209,338.010154,263.463622
0.688000,2.038714,336.814223,260.813791
0.696000,1.729032,335.702215,264.913437
0.704000,1.806477,338.972364,265.273328
0.712000,1.612914,342.413325,261.774902
0.720000,1.480632,340.493997,261.052084
0.728000,1.425795,342.350975,255.024457
0.736000,1.403236,340.900780,261.467538
0.744000,1.490300,338.760408,261.382700
0.752000,1.254841,337.126823,258.472774
0.760000,1.341955,337.885208,253.547875
0.768000,1.148391,338.464400,260.883716
0.776000,1.290341,350.099113,260.612934
0.784000,1.141946,337.924338,262.204020
0.792000,1.290341,340.933212,262.514751
0.800000,1.180618,340.170771,266.101475
0.808000,1.658082,337.037702,257.495102
0.816000,2.500014,338.759016,259.078667
0.824000,2.303227,344.312263,259.644801
0.832000,1.425795,341.959708,258.195944
0.840000,0.896768,337.052456,265.688699
0.848000,0.987105,339.581627,262.104205
0.856000,1.109668,338.822823,263.932000
0.864000,0.951604,340.481428,259.561758
0.872000,1.029000,333.514679,253.609516
0.880000,0.787095,338.485111,264.819809
0.888000,0.829041,339.599062,258.372674
0.896000,0.996773,339.736279,261.335095
0.904000,0.974163,339.446354,263.778404
0.912000,0.987105,333.124589,257.956925
0.920000,1.087109,329.595283,263.896943
0.928000,1.012886,337.896437,265.216647
0.936000,0.961273,332.360808,260.451404
0.944000,1.100000,338.882593,260.078664
0.952000,1.109668,337.138707,257.930810
0.960000,1.032273,339.734832,260.900255
0.968000,1.012886,341.932345,260.661150
0.976000,1.132227,338.901344,261.637947
0.984000,1.203227,329.703414,260.246982
0.992000,1.119336,335.989581,261.299262
1.000000,1.058054,334.643286,262.645904
1.008000,1.064500,334.710547,256.477397
1.016000,1.029000,340.108976,260.884528
1.024000,1.012886,340.405832,262.424107
1.032000,0.961273,333.341219,256.376082
1.040000,1.029000,333.603375,262.492135
1.048000,0.935491,337.461049,263.626167
1.056000,0.851600,330.799499,261.375808
1.064000,0.877432,341.288412,258.737380
1.072000,0.870936,336.472651,255.707103
1.080000,0.725814,331.246942,262.392208
1.088000,0.735482,337.698400,261.590275
1.096000,0.829041,335.489680,258.855490
1.104000,0.838709,330.718871,266.358107
1.112000,0.719318,333.496800,267.598750
1.120000,0.764486,333.514416,262.498101
1.128000,0.729036,333.813709,268.015526
1.136000,0.877432,336.492364,262.860199
1.144000,0.696759,337.562709,262.517799
1.152000,0.841932,333.898801,263.450793
1.160000,0.690314,330.871952,263.688568
1.168000,0.909659,341.134937,262.067771
1.176000,0.819322,340.457530,263.757597
1.184000,0.677423,334.234382,258.285912
1.192000,0.709650,333.205454,262.233385
1.200000,0.867713,338.635452,263.251127
1.208000,0.793541,333.528781,267.018252
1.216000,0.735482,331.203781,266.564571
1.224000,0.796764,340.984814,265.171931
1.232000,0.829041,337.099495,263.608724
1.240000,0.799986,336.800872,260.968874
1.248000,0.867713,337.773677,264.556741
1.256000,0.774205,334.732545,261.460927
1.264000,0.806432,338.144670,269.868516
1.272000,0.819322,342.940722,259.281098
1.280000,0.764486,345.290389,261.302952
1.288000,0.870936,335.740450,259.925417
1.296000,0.867713,342.557423,266.839422
1.304000,0.941936,343.017290,264.740542
1.312000,1.022554,335.934480,268.352861
1.320000,0.906436,338.653545,262.340982
1.328000,0.929046,339.202538,267.420633
1.336000,0.741927,339.221414,264.225718
1.344000,0.770932,337.153381,269.753626
1.352000,0.645145,336.602907,266.686053
1.360000,0.612868,340.245864,269.123612
1.368000,0.722591,342.543049,263.182592
1.376000,0.725814,340.431300,261.771354
1.384000,0.690314,340.626440,269.163587
1.392000,0.780650,335.290095,260.905001
1.400000,0.651591,339.724297,262.243865
1.408000,0.796764,335.893370,262.422721
1.416000,0.780650,337.612904,260.477817
1.424000,0.738705,340.597971,263.157488
1.432000,0.870936,338.182129,266.377168
1.440000,1.329014,340.961935,267.438148
1.448000,1.961318,342.592384,263.762001
1.456000,1.954823,339.696382,265.870794
1.464000,1.009664,337.513147,262.978570
1.472000,0.577418,343.547490,261.584552
1.480000,0.545141,342.489499,261.394592
1.488000,0.580641,338.213035,267.021482
1.496000,0.638700,338.958373,261.914706
1.504000,0.587086,338.911606,261.765838
1.512000,0.696759,342.828836,257.729754
1.520000,0.480636,339.046720,260.667586
1.528000,0.638700,343.954769,262.440456
1.536000,0.741927,342.347455,257.169589
1.544000,0.790318,345.698531,260.025997
1.552000,0.774205,341.276729,261.722407
1.560000,0.793541,339.335989,262.373718
1.568000,0.867713,341.175626,255.617790
1.576000,1.100000,340.637379,262.020825
1.584000,0.819322,341.804828,262.396699
1.592000,0.987105,340.264544,260.334177
1.600000,0.835486,341.577986,264.471509
1.608000,0.948382,347.194127,260.976628
1.616000,0.948382,338.911950,257.623928
1.624000,1.070945,341.718648,263.135049
1.632000,1.064500,341.253115,263.943784
1.640000,1.100000,335.363571,261.634054
1.648000,1.106445,340.462507,262.135431
1.656000,1.135500,343.350190,259.191799
1.664000,1.193559,336.147486,262.554629
1.672000,1.061277,340.075627,259.472346
1.680000,1.048386,333.064140,264.510815
1.688000,0.996773,334.694023,264.461778
1.696000,1.009664,342.018466,260.768872
1.704000,0.961273,342.427759,261.057234
1.712000,1.064500,335.629833,259.302761
1.720000,0.903214,338.166658,264.356810
1.728000,1.074168,331.029900,259.974818
1.736000,0.938714,337.002085,260.735967
1.744000,1.019332,333.062275,259.207616
1.752000,1.070945,335.495981,255.679494
1.760000,1.100000,337.456735,259.523282
1.768000,1.022554,332.159229,261.274996
1.776000,1.190336,337.138638,260.600134
1.784000,1.058054,337.389830,260.891542
1.792000,0.987105,333.255682,256.049136
1.800000,1.090332,335.437496,257.077105
1.808000,1.090332,338.527539,260.601385
1.816000,1.012886,341.958489,264.239527
1.824000,1.083886,335.118515,264.436047
1.832000,1.145168,336.491963,267.683865
1.840000,0.899991,337.117288,261.985240
1.848000,0.977386,339.205520,258.925883
1.856000,0.912882,332.163189,262.158306
1.864000,0.883877,330.855232,264.141044
1.872000,0.945159,337.859793,267.265283
1.880000,0.945159,337.820183,262.825020
1.888000,0.980659,340.041726,262.852575
1.896000,0.896768,338.766788,266.197014
1.904000,0.883877,333.922365,263.510486
1.912000,0.864491,336.951982,261.270440
1.920000,1.003218,335.462802,266.859528
1.928000,0.987105,332.230314,263.758455
1.936000,0.996773,336.247848,263.359554
1.944000,1.138723,335.867339,265.308320
1.952000,1.038718,335.303185,262.354041
1.960000,1.064500,333.231381,262.826147
1.968000,1.080613,336.834397,265.294601
1.976000,1.148391,335.773770,259.395319
1.984000,1.070945,336.927434,264.422870
1.992000,0.909659,338.867393,266.544741
2.000000,0.974163,342.557564,263.318659
2.008000,0.880655,333.514060,260.979843
2.016000,0.870936,336.271806,263.286947
2.024000,0.922550,336.246778,259.626529
2.032000,1.012886,337.886229,261.523869
2.040000,0.877432,335.598475,270.380565
2.048000,1.109668,334.236766,266.752352
2.056000,1.048386,339.702003,267.859886
2.064000,1.170950,337.447324,257.972816
2.072000,1.077391,339.395458,260.447896
2.080000,1.419350,338.880073,263.981296
2.088000,2.096773,342.955332,261.532933
2.096000,2.277446,335.410069,264.214466
2.104000,1.638695,338.036095,263.195979
2.112000,0.903214,339.003797,262.337877
2.120000,0.999995,343.212872,265.422147
2.128000,1.048386,333.445102,270.304632
2.136000,0.722591,335.072759,264.173409
2.144000,0.841932,342.578157,265.255591
2.152000,0.974163,341.977841,263.043963
2.160000,0.816100,342.333506,264.703551
2.168000,0.887100,338.676878,268.661176
2.176000,0.906436,334.149326,266.333778
2.184000,0.941936,330.409981,269.816728
2.192000,0.964495,341.891532,264.997512
2.200000,1.064500,340.813901,263.210301
2.208000,0.990327,343.667169,267.176318
2.216000,1.190336,340.371579,264.009266
2.224000,0.951604,337.653928,267.333425
2.232000,1.051609,335.705342,267.040236
2.240000,0.941936,341.836783,262.659548
2.248000,1.138723,339.184225,259.976912
2.256000,1.122559,340.245659,266.428682
2.264000,1.270954,338.504892,259.934715
2.272000,1.087109,336.131158,260.753231
2.280000,1.222564,342.152526,263.604193
2.288000,1.538691,339.882710,261.378141
2.296000,1.316123,340.861713,260.354326
2.304000,1.348400,339.409997,263.574684
2.312000,1.229009,339.313911,262.070123
2.320000,1.332236,339.214460,261.153838
2.328000,1.132227,342.441910,263.872109
2.336000,1.270954,341.296145,259.465714
2.344000,1.241950,341.276946,262.587026
2.352000,1.293564,340.577209,263.929945
2.360000,1.251618,339.172236,257.956437
2.368000,0.951604,344.377506,260.007644
2.376000,0.912882,342.118683,263.953310
2.384000,0.719318,340.655817,259.658869
2.392000,0.880655,343.209323,261.350822
2.400000,1.193559,338.749892,263.233134
2.408000,1.151614,337.832881,262.078012
2.416000,0.938714,339.458058,260.410605
2.424000,0.835486,343.312360,260.958206
2.432000,0.887100,344.134701,259.533232
2.440000,0.854823,334.681205,262.336175
2.448000,0.964495,334.828240,263.403117
2.456000,0.916104,340.739910,252.770499
2.464000,0.829041,341.984873,265.631319
2.472000,0.709650,340.568445,260.335526
2.480000,0.893545,337.521262,259.779003
2.488000,0.990327,337.358449,258.019655
2.496000,0.848377,334.446022,259.935621
2.504000,0.958050,339.036601,258.941250
2.512000,0.893545,334.233224,261.433294
2.520000,0.893545,332.049405,260.345677
2.528000,0.877432,340.624917,264.379335
2.536000,0.867713,335.140342,262.289371
2.544000,0.883877,339.298242,256.427807
2.552000,1.080613,331.736058,260.034895
2.560000,0.929046,328.829054,261.669167
2.568000,1.112891,336.765812,262.935785
2.576000,1.103223,338.997633,256.920414
2.584000,0.974163,334.426561,263.655190
2.592000,0.987105,334.134386,260.551217
2.600000,0.961273,335.693149,258.100337
2.608000,0.867713,337.572458,258.822241
2.616000,0.803209,336.651438,260.438127
2.624000,0.796764,332.557222,266.632651
2.632000,0.896768,338.183263,264.213879
2.640000,0.841932,336.919481,262.755087
2.648000,1.022554,334.726161,262.094388
2.656000,0.977386,338.799963,260.946442
2.664000,0.987105,337.643492,261.136725
2.672000,0.822545,333.900766,259.127845
2.680000,0.793541,337.999507,269.689471
2.688000,1.096777,335.234017,264.904550
2.696000,1.674195,335.341967,263.138129
2.704000,2.271000,340.628226,264.164372
2.712000,1.932264,338.425099,263.682664
2.720000,1.054832,339.997308,263.575387
2.728000,0.729036,337.907986,268.049925
2.736000,0.564477,332.400172,263.932796
2.744000,0.645145,334.390278,263.142507
2.752000,0.838709,337.866626,257.985971
2.760000,0.874159,335.109560,259.403485
2.768000,0.867713,335.657928,262.154797
2.776000,0.799986,339.676340,263.994725
2.784000,0.861268,334.781556,263.485954
2.792000,0.993550,335.279118,260.611801
2.800000,0.867713,340.780279,264.712217
2.808000,0.922550,334.662099,262.102682
2.816000,1.048386,337.070097,265.175239
2.824000,1.032273,342.475330,260.184234
2.832000,1.051609,332.174563,265.348184
2.840000,0.893545,341.130724,255.741407
2.848000,1.087109,339.021238,265.443422
2.856000,1.103223,339.369511,262.160963
2.864000,1.151614,337.334954,267.088754
2.872000,1.116114,338.542038,267.719840
2.880000,1.045164,338.572804,261.197882
2.888000,1.116114,343.136208,264.118271
2.896000,0.967718,340.325088,266.746484
2.904000,1.122559,338.854691,269.940762
2.912000,1.016109,340.862514,261.707479
2.920000,1.119336,338.591445,265.782016
2.928000,0.967718,338.134303,268.782170
2.936000,1.009664,339.794774,264.956543
2.944000,0.948382,338.645319,262.593966
2.952000,0.922550,338.633482,265.477614
2.960000,0.745150,339.401205,267.432260
2.968000,0.716095,337.407144,266.411537
2.976000,0.790318,341.550617,267.383534
2.984000,0.783873,341.822017,267.730186
2.992000,0.729036,340.393631,258.663607
3.000000,1.038718,335.795884,265.091974
3.008000,0.816100,345.050019,265.016188
3.016000,0.906436,342.151942,267.436636
3.024000,0.999995,339.498502,264.061715
3.032000,0.864491,338.885494,262.955069
3.040000,0.874159,339.850865,261.150592
3.048000,0.903214,341.714051,264.032353
3.056000,1.045164,341.005484,260.533695
3.064000,0.864491,342.216408,260.412698
3.072000,0.825818,346.676481,257.094848
3.080000,0.890323,338.530291,261.991236
3.088000,0.909659,346.093859,263.880650
3.096000,0.941936,336.979672,262.109541
3.104000,0.841932,340.089081,260.878621
3.112000,0.816100,339.896116,260.628815
3.120000,0.822545,337.018231,260.832096
3.128000,0.883877,342.966313,266.697228
3.136000,0.751595,336.189478,255.425739
3.144000,0.893545,340.623758,268.564507
3.152000,0.838709,345.003653,261.763232
3.160000,0.896768,338.707743,260.020388
3.168000,0.880655,344.341526,256.429746
3.176000,0.999995,340.883774,258.781798
3.184000,0.874159,331.172188,258.403120
3.192000,0.961273,337.642135,259.208191
3.200000,1.141946,346.470206,264.910689
3.208000,0.990327,333.982732,260.679261
3.216000,0.890323,340.540174,263.273504
3.224000,0.987105,338.284576,262.425952
3.232000,0.893545,337.059739,262.854896
3.240000,0.883877,342.068253,265.127718
3.248000,0.761263,340.904877,263.336369
3.256000,0.816100,334.007203,261.903186
3.264000,0.890323,336.121195,260.062040
3.272000,1.054832,336.678311,262.698764
3.280000,0.903214,335.617772,259.052675
3.288000,1.074168,337.433876,258.014612
3.296000,0.983882,336.693268,256.592160
3.304000,0.983882,327.873090,258.103467
3.312000,1.358068,340.792179,262.215463
3.320000,1.932264,333.994338,264.577007
3.328000,2.319341,335.163477,261.288138
3.336000,1.477409,338.608876,263.004131
3.344000,0.999995,338.670711,259.544245
3.352000,0.719318,339.291102,261.429782
3.360000,0.790318,333.860190,264.315912
3.368000,0.758041,330.379348,262.998096
3.376000,0.670977,334.382220,264.060623
3.384000,0.780650,335.497131,263.510712
3.392000,0.912882,338.268112,264.524819
3.400000,0.903214,335.672093,260.608630
3.408000,0.751595,337.667630,263.503091
3.416000,0.783873,334.788993,262.322468
3.424000,0.935491,340.233170,263.805908
3.432000,0.858045,334.957012,263.519183
3.440000,0.896768,335.650602,260.288498
3.448000,0.993550,335.053805,261.974414
3.456000,0.909659,335.302637,261.129824
3.464000,0.935491,336.825838,263.374579
3.472000,1.106445,338.327063,265.491991
3.480000,1.148391,333.927363,260.614754
3.488000,1.161282,336.423686,265.337490
3.496000,1.164504,333.070728,266.912210
3.504000,1.180618,332.496150,265.011948
3.512000,0.983882,336.210633,262.502712
3.520000,1.161282,331.122012,266.556845
3.528000,1.038718,334.681792,259.620070
3.536000,1.058054,336.433775,262.496725
3.544000,1.106445,336.981335,264.276762
3.552000,0.999995,336.190022,266.273536
3.560000,0.880655,334.752380,261.612834
3.568000,0.838709,337.669886,264.862957
3.576000,0.954827,337.063589,258.571418
3.584000,0.909659,338.530726,267.384133
3.592000,0.954827,335.080773,263.137700
3.600000,0.825818,336.283336,271.316857
3.608000,0.883877,341.031289,265.930769
3.616000,0.896768,338.859677,263.826397
3.624000,0.870936,336.408438,256.746042
3.632000,0.970941,339.200274,267.555344
3.640000,1.083886,336.336957,258.595344
3.648000,1.019332,340.492313,268.090760
3.656000,0.980659,337.962922,261.638054
3.664000,0.932268,336.823364,267.126163
3.672000,1.135500,339.084563,260.994268
3.680000,0.922550,336.341944,264.635252
3.688000,0.961273,336.850847,266.356997
3.696000,0.916104,342.444914,267.210475
3.704000,0.874159,340.612925,262.914948
3.712000,0.835486,344.300971,266.755474
3.720000,0.922550,335.013612,264.032940
3.728000,0.999995,338.163523,260.834198
3.736000,0.958050,339.614058,266.099011
3.744000,1.070945,337.904476,265.685341
3.752000,1.025777,337.089777,264.027102
3.760000,1.041941,338.905694,264.026984
3.768000,0.996773,340.312629,263.392779
3.776000,0.877432,341.893456,262.378604
3.784000,1.051609,336.983800,261.058160
3.792000,1.161282,340.853848,262.975866
3.800000,0.987105,340.644556,264.637740
3.808000,1.122559,342.083305,262.517420
3.816000,1.080613,341.381339,261.363535
3.824000,1.151614,340.995244,260.754688
3.832000,1.125782,340.300997,262.421783
3.840000,1.241950,338.382595,261.074095
3.848000,1.148391,340.266724,268.210099
3.856000,1.080613,342.954203,259.335801
3.864000,1.051609,343.378845,256.180517
3.872000,0.935491,340.651346,264.430802
3.880000,0.916104,338.318830,260.850948
3.888000,0.996773,345.152369,258.666673
3.896000,1.048386,343.173311,261.949528
3.904000,0.909659,338.922480,262.824185
3.912000,0.954827,344.055136,260.750333
3.920000,0.951604,345.566603,260.736156
3.928000,0.967718,340.879674,258.828442
3.936000,0.912882,339.284986,259.417004
3.944000,0.887100,341.859296,263.927780
3.952000,1.438686,343.718723,256.258491
3.960000,1.903209,337.016876,260.321754
3.968000,2.258059,335.667295,260.471880
3.976000,1.590304,334.893587,266.378247
3.984000,0.958050,345.456459,261.559056
3.992000,0.735482,337.261292,264.164496
4.000000,0.838709,333.929908,256.737698
4.008000,0.709650,337.483409,260.732600
4.016000,0.825818,332.272670,262.672766
4.024000,0.870936,339.009329,259.348001
4.032000,0.764486,339.583370,261.994480
4.040000,0.812877,335.670658,255.979158
4.048000,0.948382,338.344835,257.940148
4.056000,0.877432,337.173737,263.961613
4.064000,0.929046,336.649156,256.587394
4.072000,0.961273,333.059725,256.024208
4.080000,0.958050,336.374162,261.818735
4.088000,1.125782,335.971614,261.382651
4.096000,0.961273,336.214568,259.244185
4.104000,1.174173,332.695594,261.926552
4.112000,1.119336,335.482336,262.742645
4.120000,1.193559,335.427514,258.681245
4.128000,1.235454,334.457057,255.125489
4.136000,1.161282,337.050079,262.874118
4.144000,1.187114,338.676144,257.014425
4.152000,1.158059,332.261028,258.412219
4.160000,1.280623,338.460839,264.157369
4.168000,1.064500,334.535176,262.960455
4.176000,1.109668,335.076943,262.444195
4.184000,1.061277,339.529690,261.556560
4.192000,1.054832,338.386617,259.211495
4.200000,0.996773,338.996091,260.988462
4.208000,0.954827,341.853574,266.657417
4.216000,1.100000,332.126435,267.837180
4.224000,0.999995,338.061933,265.016482
4.232000,0.893545,336.338175,263.045568
4.240000,0.896768,337.828816,265.334618
4.248000,0.938714,340.040826,261.428608
4.256000,1.032273,337.560402,265.396423
4.264000,0.954827,329.569949,263.755903
4.272000,0.922550,331.152911,260.384819
4.280000,0.951604,336.262975,263.869380
4.288000,0.964495,340.955755,255.903084
4.296000,1.035496,338.231979,264.075942
4.304000,0.909659,336.917919,253.548939
4.312000,0.958050,334.299437,262.037770
4.320000,1.012886,339.602972,267.409471
4.328000,0.983882,338.782182,260.708478
4.336000,0.874159,335.933760,260.667249
4.344000,0.945159,338.928835,263.335416
4.352000,0.974163,342.350983,266.191632
4.360000,0.958050,337.040009,259.282340
4.368000,0.890323,338.761303,262.691040
4.376000,0.980659,337.196072,265.132246
4.384000,0.996773,337.988038,264.180758
4.392000,0.922550,336.085351,263.993365
4.400000,0.848377,335.903454,270.567925
4.408000,1.067723,338.014038,268.667963
4.416000,0.903214,332.887872,262.212836
4.424000,0.896768,338.649222,265.112521
4.432000,0.970941,343.084627,261.270322
4.440000,0.964495,339.593844,266.389608
4.448000,0.999995,339.525284,263.993413
4.456000,1.077391,337.242494,262.694367
4.464000,1.100000,339.917293,266.354353
4.472000,0.983882,336.489060,262.917013
4.480000,1.048386,341.041409,266.038823
4.488000,1.032273,336.531809,266.655862
4.496000,0.877432,339.240372,263.433789
4.504000,1.012886,338.068522,265.825542
4.512000,1.006441,336.886551,267.152380
4.520000,0.945159,338.821276,263.392108
4.528000,0.896768,341.044267,262.356405
4.536000,0.961273,338.506899,262.060131
4.544000,1.019332,340.392358,259.906847
4.552000,0.880655,340.767636,262.685541
4.560000,0.974163,340.421870,270.250739
4.568000,0.925772,340.837021,262.296458
4.576000,1.180618,341.177072,264.464940
4.584000,1.854818,337.985632,260.595276
4.592000,2.445177,335.693283,263.341453
4.600000,1.790314,336.099159,267.652722
4.608000,0.906436,340.336738,266.692173
4.616000,0.754818,339.926722,259.340753
4.624000,0.748373,339.275327,264.844905
4.632000,0.809654,346.416828,264.507798
4.640000,0.748373,332.502269,263.002426
4.648000,0.777427,339.683486,262.211351
4.656000,0.838709,340.564238,257.367773
4.664000,0.858045,339.591988,258.986665
4.672000,0.887100,343.375604,262.022160
4.680000,0.854823,344.638808,264.468170
4.688000,0.970941,336.052584,260.448336
4.696000,0.777427,342.667710,262.547388
4.704000,0.954827,340.270429,262.364001
4.712000,0.967718,341.363861,257.809164
4.720000,0.899991,338.963250,261.573681
4.728000,0.980659,333.511588,264.406664
4.736000,1.022554,338.135704,260.292171
4.744000,1.058054,338.176062,264.014317
4.752000,1.090332,340.459807,264.187082
4.760000,1.070945,340.657905,260.155893
4.768000,1.096777,333.962337,265.082719
4.776000,1.103223,336.738708,258.237271
4.784000,1.148391,333.063695,260.402118
4.792000,1.054832,332.882948,263.676884
4.800000,1.035496,337.175789,260.601601
4.808000,1.116114,337.683825,260.394153
4.816000,1.058054,335.191015,263.060329
4.824000,1.090332,333.445993,263.479477
4.832000,0.864491,333.633010,258.663538
4.840000,0.945159,337.068693,260.404407
4.848000,0.838709,337.526586,252.921752
4.856000,0.806432,337.661380,257.881922
4.864000,0.870936,336.547846,255.154940
4.872000,0.909659,331.616658,261.635480
4.880000,0.832264,338.332925,260.332142
4.888000,0.841932,339.354927,261.517342
4.896000,0.880655,338.467350,254.613020
4.904000,1.106445,331.175689,260.554917
4.912000,0.793541,335.221138,258.862721
4.920000,0.877432,335.159804,261.340002
4.928000,0.845154,335.094561,267.943734
4.936000,1.022554,337.792248,264.420443
4.944000,0.854823,341.886329,258.973826
4.952000,0.909659,340.249927,264.859857
4.960000,0.838709,327.097869,259.931120
4.968000,0.967718,337.850305,262.847401
4.976000,0.738705,334.176435,259.536103
4.984000,0.867713,337.520451,255.578106
4.992000,0.790318,337.926773,261.139753
5.000000,0.893545,333.388697,266.584905
5.008000,0.764486,337.434435,265.707398
5.016000,0.880655,332.683110,263.860227
5.024000,0.945159,332.419584,261.810705
5.032000,0.877432,337.746968,263.687291
5.040000,0.867713,335.538189,264.287542
5.048000,1.051609,339.615583,260.958136
5.056000,0.954827,333.532559,267.296352
5.064000,0.970941,336.813910,261.382391
5.072000,0.961273,331.850076,261.502478
5.080000,0.929046,336.640658,261.846141
5.088000,1.083886,343.082298,259.181010
5.096000,0.967718,336.570871,262.848741
5.104000,0.870936,335.867535,262.449385
5.112000,0.845154,334.612818,261.296054
5.120000,0.883877,335.717351,266.955956
5.128000,0.961273,338.501100,263.490323
5.136000,0.961273,334.445217,261.211125
5.144000,0.893545,338.940728,260.118397
5.152000,0.990327,338.582000,261.452487
5.160000,0.945159,333.019527,265.104235
5.168000,1.032273,337.973890,265.602540
5.176000,0.970941,337.474771,262.906819
5.184000,1.358068,338.661740,258.004677
5.192000,2.070991,339.842150,264.929162
5.200000,2.354841,334.497363,269.839570
5.208000,1.503241,339.495126,270.457209
5.216000,0.925772,342.904468,263.052382
5.224000,0.712873,345.302439,261.803777
5.232000,0.712873,338.457497,268.671808
5.240000,0.835486,335.864047,264.536738
5.248000,0.787095,337.419493,266.272614
5.256000,0.838709,336.363590,261.973245
5.264000,0.877432,335.912199,270.596124
5.272000,0.990327,340.469218,264.050223
5.280000,0.719318,343.842027,263.735422
5.288000,0.941936,340.681213,265.129032
5.296000,1.054832,335.541222,265.931066
5.304000,1.074168,334.147980,266.117905
5.312000,0.948382,342.287392,266.802315
5.320000,1.129004,334.831854,258.819780
5.328000,1.151614,336.583513,264.518364
5.336000,1.012886,334.765007,264.808120
5.344000,1.061277,334.865278,261.810696
5.352000,1.009664,342.723219,265.697306
5.360000,1.109668,342.731722,261.373078
5.368000,1.329014,340.039728,264.007140
5.376000,1.132227,339.608246,262.861268
5.384000,1.209673,339.678434,265.799452
5.392000,1.135500,338.896058,259.648335
5.400000,1.164504,341.048390,264.835380
5.408000,1.048386,343.091897,254.381533
5.416000,1.164504,344.716638,260.625011
5.424000,0.929046,347.388742,259.883148
5.432000,1.012886,338.780283,262.134726
5.440000,1.051609,341.516337,259.961347
5.448000,0.867713,336.532709,261.313155
5.456000,1.029000,343.929772,261.379718
5.464000,0.909659,339.371936,263.241178
5.472000,0.777427,338.736593,260.940003
5.480000,0.983882,335.308509,258.856469
5.488000,0.816100,337.343449,261.453156
5.496000,0.993550,338.192666,261.513256
5.504000,0.932268,342.969796,266.290682
5.512000,0.961273,340.512172,255.181826
5.520000,1.054832,340.568562,262.682447
5.528000,0.964495,336.553299,267.430480
5.536000,1.093555,341.855682,262.069142
5.544000,1.058054,336.890387,260.646558
5.552000,1.038718,341.663786,262.060524
5.560000,1.083886,333.519706,260.509379
5.568000,0.990327,338.605095,259.623770
5.576000,0.970941,340.963853,258.504783
5.584000,0.925772,337.335917,259.150254
5.592000,1.022554,336.703909,262.263978
5.600000,0.890323,336.545929,261.533845
5.608000,0.948382,335.146531,259.458663
5.616000,1.016109,337.009915,259.995501
5.624000,1.145168,330.504740,260.921352
5.632000,1.012886,331.351650,261.829739
5.640000,0.958050,336.216391,256.805466
5.648000,0.958050,333.975376,257.847381
5.656000,1.093555,334.915134,257.795859
5.664000,1.048386,343.345976,257.621874
5.672000,0.987105,333.324277,260.890427
5.680000,1.087109,336.939773,262.096246
5.688000,0.961273,338.207146,258.938313
5.696000,0.964495,335.405491,264.343228
5.704000,1.106445,335.607284,264.353547
5.712000,0.864491,338.879982,257.869661
5.720000,0.854823,340.184181,258.653624
5.728000,0.877432,338.872486,261.576904
5.736000,0.874159,335.605301,261.912124
5.744000,1.032273,339.161131,255.512942
5.752000,0.945159,335.937405,266.621482
5.760000,0.999995,335.290162,260.863450
5.768000,0.945159,339.310526,257.666129
5.776000,1.012886,338.275015,263.594599
5.784000,0.980659,337.863340,265.657216
5.792000,1.106445,333.730025,261.923055
5.800000,1.658082,336.487969,263.297875
5.808000,2.241946,331.731698,262.219233
5.816000,1.919373,331.877875,262.887497
5.824000,1.112891,330.207008,266.079854
5.832000,0.632255,334.729363,267.776696
5.840000,0.887100,332.248435,268.501996
5.848000,0.522582,338.829821,266.892337
5.856000,0.674200,333.505470,261.827485
5.864000,0.796764,338.121352,266.319860
5.872000,0.754818,338.894636,256.753226
5.880000,0.751595,336.405127,262.511272
5.888000,0.816100,336.415004,259.868152
5.896000,0.748373,333.210364,265.005277
5.904000,0.925772,333.439714,266.686499
5.912000,0.841932,338.075271,264.147060
5.920000,0.941936,343.581512,264.820846
5.928000,0.964495,335.531156,267.288036
5.936000,1.074168,334.391344,268.347504
5.944000,0.948382,336.972984,267.301517
5.952000,1.041941,337.095320,264.018980
5.960000,1.038718,336.940875,263.026434
5.968000,1.048386,338.720916,265.040808
5.976000,1.109668,338.178261,265.728665
5.984000,1.141946,337.241987,267.002705
5.992000,1.267732,344.439995,266.689864
6.000000,1.109668,342.664526,261.163252
6.008000,1.025777,339.301422,261.081666
6.016000,1.241950,339.427380,266.989415
6.024000,1.045164,333.788093,264.439114
6.032000,1.074168,338.500338,261.368496
6.040000,0.970941,342.882730,266.509943
6.048000,0.958050,338.110917,262.918520
6.056000,1.035496,338.177813,262.516880
6.064000,0.793541,339.496085,266.193396
6.072000,0.893545,336.783104,265.091833
6.080000,1.029000,340.028735,262.857733
6.088000,0.903214,332.264895,265.011568
6.096000,0.980659,339.522162,262.241937
6.104000,1.064500,336.236520,267.090782
6.112000,0.838709,339.136284,266.086438
6.120000,0.906436,339.174908,267.948522
6.128000,1.203227,334.982466,262.183498
6.136000,0.922550,336.575225,265.605772
6.144000,0.916104,337.764797,263.227053
6.152000,1.003218,342.677391,264.036712
6.160000,1.074168,337.049428,260.859065
6.168000,0.970941,339.846098,258.607519
6.176000,0.919327,339.443853,265.341678
6.184000,1.087109,338.075897,262.110849
6.192000,1.058054,338.543840,267.538083
6.200000,0.935491,339.913804,264.979713
6.208000,0.987105,342.676838,262.687664
6.216000,0.938714,338.702931,261.239270
6.224000,0.993550,346.798197,257.102689
6.232000,1.029000,336.319290,254.527253
6.240000,0.977386,341.494503,262.624044
6.248000,0.890323,341.662655,256.610045
6.256000,1.077391,341.813669,258.598230
6.264000,1.022554,339.476730,261.605731
6.272000,1.003218,340.836717,257.705344
6.280000,1.054832,337.235466,259.988951
6.288000,1.238727,339.512900,263.612926
6.296000,1.190336,338.665837,260.680777
6.304000,1.132227,338.554857,260.295274
6.312000,0.951604,342.395882,258.515503
6.320000,1.045164,336.583917,261.309162
6.328000,1.025777,338.780225,258.946474
6.336000,0.961273,337.372729,261.318623
6.344000,1.016109,339.758665,258.609803
6.352000,1.009664,339.225569,259.339504
6.360000,0.883877,336.165666,259.653836
6.368000,0.916104,340.054664,261.377758
6.376000,1.038718,333.820879,261.658704
6.384000,1.058054,331.482817,261.494539
6.392000,0.922550,336.302029,263.629655
6.400000,0.987105,339.105927,258.093462
6.408000,1.409682,342.552629,257.463512
6.416000,1.896764,336.399843,262.683947
6.424000,2.303227,335.921975,261.517892
6.432000,1.777423,339.865874,259.067115
6.440000,0.999995,341.606761,261.391063
6.448000,0.764486,332.579863,259.816669
6.456000,0.890323,336.519946,258.571133
6.464000,0.880655,334.133645,260.873591
6.472000,0.758041,337.085992,262.728478
6.480000,1.019332,332.847953,259.630795
6.488000,1.003218,340.021067,260.377410
6.496000,0.977386,337.818926,257.980515
6.504000,1.106445,329.347005,262.284141
6.512000,1.212895,335.235665,261.546287
6.520000,1.083886,339.543379,263.444564
6.528000,0.883877,334.145575,262.356641
6.536000,1.306455,334.994197,263.072154
6.544000,1.112891,336.988045,258.243525
6.552000,1.154836,338.648458,262.787380
6.560000,1.274177,337.367149,265.861824
6.568000,1.293564,342.217149,260.061522
6.576000,1.354846,331.200543,263.094079
6.584000,1.316123,331.765481,264.939968
6.592000,1.361291,336.044852,264.923705
6.600000,1.270954,337.406903,261.547204
6.608000,1.367736,332.708040,268.196125
6.616000,1.245173,335.180546,260.942004
6.624000,1.270954,341.289165,262.993171
6.632000,1.270954,336.768803,262.743884
6.640000,1.245173,338.300860,263.996634
6.648000,1.403236,335.527063,265.760715
6.656000,1.100000,337.460546,262.299989
6.664000,1.264509,338.917123,266.204484
6.672000,1.158059,336.980221,260.491060
6.680000,1.067723,338.618682,261.132242
6.688000,1.029000,337.016708,263.381811
6.696000,0.841932,335.870552,258.925571
6.704000,1.016109,338.100843,267.275282
6.712000,1.109668,334.448004,259.866703
6.720000,0.993550,336.103378,266.830496
6.728000,1.080613,339.788390,264.351578
6.736000,1.070945,335.803143,263.744493
6.744000,0.996773,333.872851,257.980963
6.752000,1.035496,341.925203,263.628512
6.760000,0.967718,333.740919,266.061229
6.768000,1.016109,341.036265,262.670363
6.776000,1.122559,340.328325,266.336832
6.784000,1.129004,343.237179,263.380603
6.792000,1.048386,342.309459,263.726380
6.800000,1.090332,340.168950,264.215380
6.808000,0.883877,337.742745,262.841028
6.816000,1.067723,344.067314,266.951456
6.824000,0.987105,334.321932,264.376051
6.832000,0.993550,332.990018,261.361342
6.840000,0.948382,337.333732,266.930578
6.848000,0.958050,338.553711,265.990752
6.856000,1.012886,331.993946,264.624986
6.864000,0.880655,335.652874,262.593416
6.872000,0.945159,339.258428,268.907182
6.880000,0.945159,338.961086,263.076113
6.888000,0.983882,333.253716,267.753989
6.896000,1.129004,341.322414,264.179376
6.904000,0.993550,341.100915,265.843238
6.912000,0.829041,334.857440,264.092255
6.920000,0.880655,334.973083,262.957103
6.928000,0.922550,339.913812,265.449022
6.936000,0.841932,337.147197,260.608098
6.944000,0.870936,336.671924,260.847196
6.952000,0.912882,338.637052,266.084852
6.960000,1.058054,339.202938,265.079216
6.968000,0.812877,340.414253,260.523450
6.976000,0.932268,342.483680,268.074737
6.984000,0.854823,342.440212,257.231014
6.992000,0.919327,342.717579,251.765158
7.000000,0.877432,336.809783,262.162142
7.008000,1.038718,341.588247,265.227370
7.016000,1.567745,342.327824,264.802337
7.024000,2.151609,333.703956,262.558657
7.032000,2.051604,337.440140,261.903456
7.040000,0.809654,339.616284,265.228991
7.048000,0.609645,342.860897,260.263122
7.056000,0.570973,337.191794,262.462868
7.064000,0.477414,339.115070,264.764815
7.072000,0.551586,343.764840,258.078794
7.080000,0.570973,342.456066,257.961110
7.088000,0.606423,336.994308,261.480516
7.096000,0.641923,336.127193,262.568732
7.104000,0.635477,339.101921,261.191020
7.112000,0.625809,341.868282,255.097706
7.120000,0.616091,337.350494,263.160916
7.128000,0.735482,342.576280,262.729606
7.136000,0.745150,337.733826,263.698453
7.144000,0.722591,340.900579,262.831564
7.152000,0.829041,340.287885,263.664683
7.160000,0.577418,335.968934,260.375506
7.168000,0.832264,332.622249,261.863317
7.176000,0.812877,341.959918,255.641587
7.184000,0.809654,339.633705,256.857882
7.192000,0.845154,336.313087,261.666427
7.200000,0.851600,331.623104,262.856482
7.208000,0.854823,338.580541,258.926638
7.216000,0.906436,334.249347,256.000639
7.224000,0.964495,337.177891,260.808079
7.232000,0.825818,337.152025,258.197021
7.240000,0.896768,337.257144,257.035036
7.248000,0.680645,335.315053,261.580973
7.256000,0.722591,334.436947,262.499870
7.264000,0.625809,332.978215,261.873138
7.272000,0.551586,333.116251,262.158381
7.280000,0.606423,336.296168,263.665276
7.288000,0.645145,338.892585,259.425511
7.296000,0.590309,338.027003,260.248912
7.304000,0.658036,334.678295,265.600049
7.312000,0.712873,333.022907,262.198202
7.320000,0.670977,333.515173,262.041688
7.328000,0.567750,335.216671,264.545784
7.336000,0.709650,336.630592,262.997002
7.344000,0.835486,333.873192,263.646259
7.352000,0.777427,333.565924,264.370876
7.360000,0.767709,336.722565,266.431532
7.368000,0.732259,334.522176,258.619523
7.376000,0.719318,337.982188,263.641852
7.384000,0.816100,333.734581,263.020680
7.392000,0.777427,334.520979,266.852068
7.400000,0.829041,332.133375,267.204754
7.408000,0.851600,333.686454,265.582742
7.416000,0.861268,334.492449,265.895708
7.424000,0.851600,336.859632,261.845491
7.432000,0.774205,330.436256,266.586927
7.440000,0.816100,331.082978,259.714262
7.448000,0.806432,337.564269,261.289409
7.456000,0.877432,335.800042,262.067111
7.464000,0.954827,336.102825,261.281275
7.472000,1.012886,342.950010,259.586602
7.480000,1.051609,334.045722,266.275770
7.488000,1.029000,334.475605,256.370176
7.496000,1.177395,335.939235,260.876445
7.504000,0.951604,340.523979,259.459552
7.512000,0.803209,338.483545,263.555734
7.520000,1.022554,339.283961,265.603141
7.528000,0.964495,339.768862,263.952312
7.536000,0.916104,336.636010,261.725151
7.544000,0.906436,337.010705,264.124908
7.552000,1.009664,342.064706,265.290372
7.560000,0.996773,339.388297,262.017263
7.568000,0.870936,344.330675,259.558066
7.576000,1.041941,338.925623,266.688354
7.584000,1.012886,343.997083,265.470929
7.592000,1.003218,333.350795,264.804932
7.600000,1.090332,344.125684,264.842967
7.608000,1.458073,339.236206,260.781532
7.616000,2.058050,342.345851,263.304111
7.624000,2.403232,334.365492,267.778747
7.632000,1.470964,340.425199,268.280181
7.640000,1.061277,339.474310,265.515650
7.648000,0.912882,337.353453,265.379880
7.656000,0.822545,335.084974,261.429579
7.664000,0.999995,343.970080,261.142094
7.672000,0.825818,337.984140,265.883860
7.680000,1.022554,337.088777,261.229434
7.688000,0.961273,335.506714,263.908533
7.696000,1.006441,336.107650,265.120154
7.704000,1.109668,341.373951,263.492486
7.712000,1.106445,343.060992,267.916320
7.720000,1.048386,338.142299,262.157437
7.728000,1.351623,334.868130,265.760778
7.736000,1.154836,338.816118,262.722355
7.744000,1.135500,343.744052,264.965643
7.752000,1.100000,340.576475,263.348148
7.760000,1.229009,341.197035,262.025115
7.768000,1.367736,338.592680,263.313791
7.776000,1.477409,337.746107,264.571882
7.784000,1.245173,343.481202,261.854279
7.792000,1.435463,337.744921,255.795861
7.800000,1.393568,343.879749,254.606459
7.808000,1.409682,339.232208,260.365898
7.816000,1.361291,337.637271,258.082631
7.824000,1.280623,341.777543,264.795845
7.832000,1.329014,340.810198,261.204077
7.840000,1.464518,339.324078,256.885115
7.848000,1.161282,338.951066,263.664760
7.856000,1.287068,338.883528,262.931742
7.864000,1.074168,338.924373,259.559592
7.872000,1.177395,333.793056,262.005524
7.880000,1.100000,338.375214,261.753217
7.888000,1.029000,340.914847,264.354173
7.896000,1.177395,336.942211,254.570886
7.904000,1.196782,335.401399,259.674873
7.912000,1.241950,332.848508,259.300469
7.920000,1.238727,334.593126,259.670735
7.928000,1.158059,338.731759,264.124709
7.936000,1.264509,341.805459,259.651201
7.944000,1.245173,340.816488,264.154709
7.952000,1.203227,336.754817,259.550246
7.960000,1.290341,331.907465,257.537083
7.968000,1.267732,328.664262,261.207295
7.976000,1.280623,337.362663,259.963119
7.984000,1.325791,334.966842,257.593070
7.992000,1.303232,337.238143,257.381045
8.000000,1.254841,341.752771,263.314154
8.008000,1.009664,336.506214,259.103869
8.016000,1.367736,339.499572,255.530562
8.024000,1.322568,339.015246,260.548872
8.032000,1.254841,338.830063,261.183012
8.040000,1.180618,339.662931,258.715612
8.048000,1.229009,335.404926,256.293667
8.056000,1.238727,333.465928,258.988633
8.064000,1.238727,336.352820,263.600014
8.072000,1.035496,342.011778,264.217261
8.080000,1.225786,337.480326,260.978247
8.088000,1.235454,336.417061,259.082570
8.096000,1.416127,341.519582,263.458397
8.104000,1.390295,332.909273,263.427283
8.112000,1.354846,336.075042,255.407286
8.120000,1.345177,339.596923,263.644204
8.128000,1.145168,336.311430,257.560524
8.136000,1.238727,335.836755,262.212708
8.144000,1.203227,337.313254,266.778025
8.152000,1.096777,344.501829,265.311912
8.160000,1.154836,337.510014,266.207975
8.168000,1.148391,333.788306,263.403643
8.176000,1.145168,331.133721,259.595886
8.184000,1.225786,337.306527,266.526528
8.192000,1.203227,334.575876,260.701569
8.200000,1.270954,338.382835,260.450459
8.208000,1.254841,334.534442,264.587902
8.216000,1.093555,338.373257,269.231122
8.224000,1.512909,339.546445,264.721693
8.232000,1.854818,337.115862,261.245871
8.240000,2.412900,338.726867,261.334117
8.248000,2.296782,341.039327,264.404235
8.256000,1.267732,334.650598,260.325410
8.264000,0.987105,335.809107,262.375441
8.272000,0.899991,336.014464,260.067341
8.280000,0.916104,332.976975,264.372583
8.288000,0.919327,340.846123,268.552034
8.296000,0.858045,340.153249,264.202428
8.304000,0.941936,335.205767,263.008771
8.312000,0.899991,338.037390,266.299528
8.320000,0.932268,335.996232,264.321974
8.328000,1.012886,340.623031,263.338847
8.336000,1.051609,334.377065,262.159370
8.344000,1.141946,339.305723,264.743767
8.352000,0.987105,339.634479,263.748840
8.360000,1.077391,338.523835,268.584655
8.368000,1.038718,346.073337,264.122611
8.376000,1.212895,342.334937,263.073501
8.384000,1.193559,336.245639,264.312344
8.392000,1.122559,337.747229,265.188769
8.400000,1.212895,339.897887,264.633180
8.408000,1.180618,333.793401,267.752584
8.416000,1.135500,340.019819,265.094287
8.424000,1.290341,342.464220,265.693478
8.432000,1.335459,345.863459,265.692990
8.440000,1.261286,334.582023,262.082669
8.448000,1.154836,339.199013,264.535101
8.456000,1.177395,340.323205,263.742808
8.464000,0.929046,342.821687,263.269912
8.472000,1.103223,338.720719,266.709257
8.480000,1.087109,341.508153,263.631594
8.488000,1.032273,338.349430,263.374989
8.496000,0.970941,334.318890,263.540950
8.504000,0.945159,337.203126,266.597789
8.512000,1.012886,342.453164,265.962710
8.520000,0.958050,341.998568,260.520740
8.528000,0.935491,343.111387,262.829846
8.536000,1.006441,344.106562,259.575824
8.544000,1.032273,340.870128,264.820387
8.552000,1.151614,341.176279,263.244716
8.560000,0.948382,341.484626,259.075207
8.568000,1.083886,334.947900,257.064150
8.576000,1.035496,345.688868,260.049378
8.584000,0.987105,339.618565,259.095319
8.592000,1.132227,339.671451,262.765803
8.600000,1.090332,337.162185,262.518905
8.608000,1.061277,343.114033,264.517758
8.616000,1.087109,339.825408,260.273756
8.624000,0.870936,341.836324,257.679886
8.632000,0.948382,336.459989,263.620802
8.640000,1.074168,335.302770,257.643459
8.648000,0.935491,337.069640,260.735932
8.656000,1.112891,338.267217,262.034828
8.664000,1.054832,338.792287,253.798949
8.672000,1.093555,339.025542,259.710828
8.680000,1.019332,335.596404,261.812215
8.688000,0.822545,338.036106,258.147829
8.696000,1.012886,336.402568,264.411319
8.704000,0.987105,340.234602,262.697392
8.712000,1.025777,341.087765,256.978900
8.720000,0.980659,336.970480,261.057534
8.728000,1.077391,339.320721,259.280533
8.736000,1.016109,334.590938,259.927211
8.744000,1.109668,335.364531,263.627968
8.752000,1.093555,338.573599,260.086946
8.760000,1.135500,336.971892,261.224525
8.768000,1.032273,338.243865,261.784657
8.776000,1.109668,335.839886,262.368471
8.784000,0.970941,336.543954,258.662977
8.792000,0.896768,333.708407,262.514838
8.800000,0.945159,329.619144,259.843230
8.808000,0.903214,337.495646,259.399455
8.816000,0.983882,335.501727,266.183748
8.824000,1.041941,332.915056,264.172293
8.832000,0.961273,335.154646,260.033162
8.840000,1.058054,338.707386,260.593374
8.848000,0.935491,332.415616,258.939590
8.856000,1.077391,335.784726,258.498514
8.864000,0.780650,335.007888,257.262438
8.872000,1.064500,333.500374,266.972286
8.880000,1.451627,328.594178,265.966947
8.888000,2.090327,334.938345,268.308769
8.896000,2.209668,342.536039,259.818351
8.904000,1.403236,336.171982,261.528158
8.912000,0.983882,338.870827,267.289224
8.920000,0.590309,336.294474,260.722594
8.928000,0.764486,337.247486,266.176316
8.936000,0.741927,336.070813,262.483241
8.944000,0.745150,334.150110,260.358562
8.952000,0.780650,336.127029,258.817255
8.960000,0.754818,335.162407,266.198498
8.968000,0.806432,338.991553,266.631299
8.976000,0.854823,335.237608,258.784700
8.984000,0.861268,337.322100,265.452943
8.992000,0.887100,336.319471,258.281060
9.000000,0.983882,331.901863,261.176166
9.008000,0.919327,335.740165,265.212025
9.016000,1.022554,336.176066,262.059277
9.024000,0.970941,334.648884,265.812452
9.032000,1.025777,335.460554,265.789412
9.040000,0.961273,338.042101,261.837437
9.048000,1.077391,335.876616,259.705585
9.056000,0.970941,335.571629,270.656083
9.064000,1.151614,336.513894,267.043220
9.072000,1.109668,335.437933,264.265014
9.080000,1.145168,339.320559,261.648848
9.088000,1.116114,338.145123,258.683905
9.096000,1.206450,340.832138,260.176032
9.104000,0.993550,342.645264,261.159743
9.112000,1.025777,339.298630,263.848783
9.120000,1.006441,338.941674,266.602143
9.128000,0.880655,335.542980,264.640167
9.136000,0.941936,339.978823,260.993190
9.144000,0.806432,342.001522,267.909437
9.152000,0.832264,342.352903,263.080882
9.160000,0.835486,336.447219,266.446462
9.168000,0.774205,338.016031,269.788640
9.176000,0.819322,334.097780,260.434551
9.184000,0.745150,334.392488,265.119122
9.192000,0.867713,335.511044,264.660884
9.200000,0.938714,337.501454,265.977889
9.208000,0.858045,336.908511,265.507356
9.216000,0.958050,340.292177,263.452112
9.224000,0.774205,336.185702,267.977052
9.232000,0.725814,341.126146,264.990125
9.240000,0.903214,341.236652,256.631198
9.248000,0.909659,336.062059,263.661497
9.256000,0.993550,340.039869,259.303003
9.264000,0.961273,341.716500,266.390292
9.272000,1.016109,340.542357,266.650471
9.280000,0.919327,339.261472,259.659406
9.288000,0.993550,339.265021,265.396521
9.296000,0.945159,342.021141,266.591739
9.304000,0.912882,346.481132,263.871584
9.312000,0.922550,339.528372,262.064521
9.320000,0.954827,339.611301,262.113938
9.328000,1.038718,341.648966,260.093628
9.336000,0.916104,333.818303,262.218891
9.344000,1.009664,336.194370,261.848558
9.352000,0.909659,343.944060,263.260268
9.360000,0.854823,339.878726,261.128674
9.368000,0.996773,341.749636,256.589810
9.376000,0.987105,334.923748,256.760657
9.384000,0.932268,345.302770,264.714602
9.392000,1.048386,333.750439,260.202732
9.400000,0.961273,339.947868,260.595867
9.408000,0.961273,344.888885,263.360035
9.416000,0.925772,338.111103,258.487333
9.424000,0.974163,333.393712,259.265044
9.432000,1.045164,339.387718,258.804962
9.440000,1.051609,333.503466,261.256798
9.448000,0.877432,333.064033,259.031619
9.456000,0.974163,336.900730,266.366210
9.464000,0.951604,344.172090,253.864681
9.472000,0.906436,340.570988,261.051131
9.480000,0.919327,336.305585,260.946613
9.488000,0.845154,337.258459,264.483387
9.496000,0.874159,337.314862,260.367363
9.504000,0.954827,332.019832,263.786186
9.512000,1.058054,335.193249,258.698572
9.520000,1.077391,334.416664,259.815122
9.528000,0.916104,332.340040,266.216458
9.536000,0.838709,332.815552,260.588791
9.544000,1.306455,339.239214,266.515794
9.552000,1.861314,331.179140,257.371889
9.560000,2.338727,338.478638,256.490393
9.568000,1.696754,333.194280,261.482231
9.576000,0.883877,343.221299,260.930606
9.584000,0.670977,330.807563,264.559137
9.592000,0.693536,338.273824,254.276069
9.600000,0.729036,339.004424,256.351788
9.608000,0.925772,331.743226,257.312784
9.616000,0.796764,338.753098,254.425540
9.624000,0.806432,340.312938,261.760020
9.632000,0.735482,340.643985,264.066019
9.640000,0.935491,333.071384,260.575474
9.648000,0.806432,334.690173,257.409579
9.656000,0.887100,335.798604,260.649886
9.664000,0.945159,339.393457,259.651991
9.672000,0.912882,339.101396,261.421707
9.680000,0.996773,339.474568,262.387583
9.688000,1.193559,333.292965,256.367311
9.696000,1.025777,334.082364,269.958036
9.704000,1.025777,339.099406,264.791682
9.712000,1.132227,336.301134,260.041194
9.720000,1.032273,333.355874,261.105390
9.728000,1.041941,332.138741,264.615496
9.736000,1.103223,334.272989,262.546252
9.744000,1.012886,340.385896,264.064477
9.752000,1.029000,333.090635,263.251492
9.760000,1.187114,334.515993,260.474405
9.768000,1.032273,337.584782,263.089207
9.776000,1.061277,329.698454,263.951596
9.784000,0.945159,333.999586,258.440094
9.792000,0.887100,335.110775,261.267121
9.800000,0.899991,335.395522,259.656308
9.808000,0.929046,340.313370,262.441414
9.816000,0.874159,342.194476,262.429655
9.824000,0.738705,335.707597,259.476589
9.832000,0.806432,335.580294,259.717149
9.840000,0.880655,340.241696,261.566679
9.848000,0.880655,339.580631,258.721810
9.856000,0.832264,340.761667,263.039184
9.864000,1.070945,343.652628,266.258419
9.872000,0.987105,336.782945,261.610432
9.880000,0.899991,339.122080,263.979619
9.888000,0.993550,341.523449,265.101861
9.896000,0.970941,337.911884,270.245939
9.904000,0.909659,341.684922,263.077647
9.912000,1.048386,335.291978,267.831535
9.920000,0.996773,339.942781,263.225073
9.928000,1.006441,336.856901,270.872058
9.936000,1.038718,341.473608,265.180399
9.944000,1.009664,342.772261,266.593564
9.952000,0.893545,337.362102,265.746586
9.960000,1.038718,340.067217,262.672851
9.968000,0.970941,340.280149,267.055557
9.976000,0.722591,332.941600,263.458388
9.984000,0.990327,332.828781,264.294138
9.992000,0.858045,347.044497,266.279296
10.000000,0.977386,338.968290,260.773736
10.008000,0.919327,339.124692,261.881363
10.016000,0.938714,343.103298,260.535625
10.024000,0.932268,339.784335,262.557104
10.032000,1.067723,339.598544,265.911277
10.040000,1.016109,343.753188,263.286437
10.048000,0.919327,332.465305,263.312047
10.056000,1.074168,338.825084,265.779800
10.064000,0.899991,334.310795,264.337681
10.072000,1.129004,337.038469,259.757446
10.080000,1.074168,336.061282,265.878930
10.088000,0.961273,340.540571,262.516949
10.096000,1.116114,339.146466,258.280705
10.104000,0.977386,344.781305,264.940047
10.112000,0.929046,340.744062,262.134458
10.120000,0.812877,341.361871,260.803070
10.128000,0.909659,339.375998,259.546313
10.136000,0.919327,337.283374,262.878988
10.144000,0.996773,344.231613,260.269415
10.152000,0.835486,340.673650,259.799127
10.160000,1.051609,343.342492,263.007838
10.168000,0.906436,343.484897,257.375789
10.176000,1.064500,339.271792,261.911654
10.184000,0.980659,339.976218,261.320783
10.192000,1.348400,342.282137,265.082969
10.200000,1.941932,345.618943,257.053288
10.208000,2.271000,340.471664,260.330815
10.216000,1.548409,338.216421,260.511437
10.224000,0.890323,334.566659,261.844837
10.232000,0.741927,337.114330,264.077920
10.240000,0.632255,340.849815,264.078642
10.248000,0.880655,340.495632,258.125050
10.256000,0.690314,343.970513,265.750622
10.264000,0.722591,333.712498,261.413061
10.272000,0.925772,341.304029,257.540895
10.280000,0.864491,343.002465,260.646317
10.288000,0.819322,333.625072,257.688761
10.296000,0.909659,337.489509,261.554667
10.304000,0.945159,332.904211,261.192834
10.312000,1.012886,334.173609,264.490605
10.320000,0.874159,336.383008,261.517227
10.328000,1.025777,338.013368,264.222460
10.336000,0.980659,337.439601,262.790360
10.344000,1.070945,338.437161,260.367566
10.352000,1.203227,335.573984,257.474508
10.360000,1.038718,336.111019,257.031990
10.368000,1.135500,334.435289,262.728414
10.376000,1.170950,338.486716,259.727476
10.384000,1.125782,338.510752,258.562222
10.392000,1.241950,339.895692,256.674942
10.400000,1.138723,337.208457,264.288184
10.408000,1.164504,336.869253,263.271116
10.416000,1.190336,340.240552,265.854949
10.424000,1.025777,341.392552,258.801944
10.432000,1.074168,340.783349,262.675818
10.440000,0.929046,334.687271,264.078702
10.448000,0.809654,335.068851,264.401193
10.456000,0.945159,334.332022,266.634505
10.464000,0.899991,338.762176,264.561936
10.472000,0.816100,331.689407,263.267370
10.480000,0.706427,331.849224,259.155600
10.488000,0.912882,334.352974,262.858049
10.496000,0.951604,333.921757,256.080392
10.504000,0.790318,335.837154,267.024705
10.512000,0.880655,338.261259,265.120708
10.520000,0.929046,335.215967,262.305672
10.528000,0.880655,332.353349,268.052719
10.536000,1.051609,330.113139,267.200587
10.544000,0.890323,331.671031,270.536574
10.552000,0.974163,338.162415,263.626447
10.560000,0.890323,335.174637,259.701241
10.568000,0.987105,337.306394,264.751809
10.576000,1.035496,338.239748,264.340878
10.584000,0.919327,342.503227,262.987061
10.592000,0.945159,344.680695,259.935089
10.600000,1.029000,337.252508,257.574252
10.608000,0.967718,334.484999,260.848808
10.616000,0.951604,345.126803,260.193601
10.624000,0.964495,339.997464,263.362781
10.632000,0.961273,334.265395,265.145487
10.640000,0.919327,340.116641,264.773640
10.648000,1.003218,339.516839,258.556713
10.656000,1.109668,338.235464,262.932561
10.664000,0.912882,337.796968,268.310584
10.672000,0.867713,339.055611,262.496511
10.680000,0.780650,335.308112,263.112744
10.688000,0.932268,340.513881,268.100884
10.696000,1.093555,335.166786,264.251381
10.704000,0.867713,335.494984,263.461973
10.712000,1.048386,340.155118,264.451509
10.720000,0.961273,339.183230,264.118951
10.728000,1.103223,343.349060,267.716191
10.736000,0.967718,341.844257,258.930227
10.744000,0.954827,337.573273,262.508021
10.752000,0.954827,341.164795,264.029970
10.760000,1.074168,334.944184,263.270704
10.768000,1.116114,338.139719,264.515487
10.776000,1.119336,336.130245,262.716382
10.784000,1.061277,331.077074,259.935942
10.792000,0.854823,339.869926,266.019296
10.800000,0.954827,337.777074,265.207721
10.808000,1.067723,341.750441,265.539810
10.816000,1.090332,338.754347,264.989087
10.824000,1.103223,335.072412,265.394010
10.832000,1.135500,341.622636,260.703030
10.840000,1.041941,344.742599,260.616750
10.848000,1.200005,339.953505,263.637602
10.856000,1.087109,339.201086,263.470133
10.864000,0.867713,337.801416,261.256626
10.872000,1.216118,334.303636,264.287634
10.880000,1.796759,339.441042,264.341614
10.888000,2.470959,341.875656,262.860566
10.896000,1.816146,338.741312,262.103741
10.904000,1.109668,344.866996,259.534735
10.912000,0.703204,336.168566,260.925558
10.920000,0.719318,340.281863,267.258312
10.928000,0.693536,347.232057,266.069447
10.936000,0.674200,346.153133,252.299151
10.944000,0.738705,339.365825,259.378165
10.952000,0.745150,339.544239,260.407120
10.960000,0.712873,339.927406,265.069751
10.968000,0.725814,340.660004,261.104510
10.976000,0.880655,337.212116,264.522453
10.984000,0.916104,339.927734,261.632923
10.992000,0.906436,336.190113,262.624459
11.000000,1.077391,337.603535,262.427882
11.008000,1.170950,338.005955,262.220957
11.016000,0.922550,337.366345,259.312390
11.024000,0.990327,339.502666,261.215257
11.032000,1.112891,341.374576,260.897278
11.040000,1.003218,340.667467,265.345877
11.048000,0.951604,337.709044,264.545088
11.056000,1.119336,338.379420,258.993624
11.064000,1.129004,340.739185,263.698887
11.072000,0.974163,339.165419,259.226649
11.080000,1.093555,333.127794,258.914940
11.088000,1.080613,337.792019,262.479251
11.096000,1.125782,333.116865,258.557991
11.104000,1.087109,332.744853,259.285015
11.112000,0.993550,336.571765,264.890744
11.120000,0.864491,334.311750,259.608614
11.128000,0.925772,334.820161,261.933049
11.136000,0.812877,331.710361,260.017676
11.144000,0.738705,333.497455,255.928077
11.152000,0.596754,333.091930,261.560779
11.160000,0.812877,338.702045,259.216879
11.168000,0.851600,337.739899,254.617878
11.176000,0.812877,330.384185,258.018527
11.184000,0.751595,340.174464,257.802230
11.192000,0.835486,339.838138,262.633652
11.200000,0.687091,340.799696,260.161115
11.208000,0.880655,336.330307,255.728100
11.216000,0.883877,334.450806,262.129285
11.224000,0.870936,341.018061,261.595936
11.232000,0.858045,336.925802,261.051027
11.240000,0.925772,331.498379,264.028214
11.248000,1.038718,340.416732,261.046707
11.256000,0.945159,334.793974,260.397694
11.264000,1.022554,333.784473,262.025086
11.272000,0.867713,333.761274,260.829344
11.280000,0.838709,338.568040,260.290414
11.288000,1.070945,333.912488,259.948423
11.296000,0.893545,337.287264,265.726737
11.304000,0.996773,337.141264,262.490339
11.312000,1.080613,339.846470,262.887299
11.320000,1.035496,335.674290,265.596711
11.328000,0.970941,330.954413,262.488191
11.336000,1.070945,332.895920,261.007936
11.344000,0.748373,334.207413,261.371212
11.352000,1.119336,336.922023,258.651302
11.360000,1.096777,336.401526,265.700105
11.368000,0.887100,336.268734,261.111372
11.376000,1.019332,338.715615,264.858923
11.384000,1.054832,334.020647,262.885442
11.392000,0.980659,339.476725,265.746017
11.400000,0.996773,334.661237,262.075441
11.408000,1.267732,337.337989,261.478090
11.416000,1.129004,342.950248,257.586810
11.424000,1.087109,337.864244,266.395557
11.432000,1.116114,335.814705,264.482581
11.440000,1.141946,335.531855,265.911718
11.448000,1.119336,336.817321,263.585310
11.456000,1.219341,344.925899,260.247023
11.464000,1.283845,344.300381,262.497954
11.472000,1.100000,335.932081,266.299902
11.480000,0.945159,331.131019,262.350338
11.488000,1.087109,336.758837,267.311945
11.496000,0.935491,334.014421,263.551034
11.504000,0.974163,336.407905,264.185238
11.512000,0.935491,342.568690,267.212784
11.520000,0.999995,341.412295,269.787827
11.528000,1.067723,341.762105,261.733009
11.536000,0.993550,339.855296,269.299361
11.544000,1.012886,337.863645,265.595052
11.552000,1.170950,334.465802,258.257043
11.560000,0.916104,336.167919,263.058223
11.568000,1.100000,337.933789,261.624554
11.576000,1.351623,337.152819,266.963057
11.584000,1.925818,334.112303,267.943415
11.592000,2.338727,340.658621,262.137425
11.600000,1.570968,343.543105,265.394687
11.608000,1.112891,336.071931,265.863726
11.616000,0.748373,335.075929,258.914059
11.624000,0.822545,337.824256,261.897169
11.632000,0.770932,339.407672,262.154424
11.640000,0.880655,341.153259,257.742677
11.648000,0.925772,340.532581,263.564530
11.656000,0.912882,336.493361,258.844945
11.664000,0.870936,343.920799,264.914159
11.672000,0.890323,337.470294,260.743703
11.680000,0.958050,336.891503,264.137935
11.688000,0.993550,340.922073,264.215707
11.696000,1.019332,337.741581,261.575885
11.704000,0.893545,342.315261,256.178392
11.712000,1.141946,340.085349,263.015598
11.720000,1.045164,338.562228,258.976410
11.728000,1.154836,341.922860,264.466651
11.736000,1.074168,341.091974,257.021038
11.744000,1.258064,341.432646,264.662324
11.752000,1.122559,342.769648,259.080570
11.760000,1.361291,336.999191,267.180572
11.768000,1.145168,340.401164,258.246510
11.776000,1.203227,338.807975,260.294388
11.784000,1.167727,342.120374,256.461810
11.792000,1.309677,338.936633,263.897613
11.800000,1.180618,340.516738,265.385151
11.808000,1.193559,335.687602,260.114021
11.816000,1.141946,332.516209,258.949474
11.824000,1.064500,340.684386,262.093772
11.832000,0.983882,336.364525,260.168562
11.840000,1.009664,344.279230,259.746134
11.848000,1.019332,334.411993,262.062673
11.856000,1.054832,334.521001,261.564246
11.864000,0.890323,337.997213,261.295373
11.872000,1.151614,336.712093,261.356611
11.880000,1.116114,334.751416,261.553020
11.888000,1.009664,341.344281,260.363036
11.896000,1.012886,340.177256,261.939699
11.904000,0.993550,336.108113,261.673280
11.912000,1.029000,336.502516,263.146597
11.920000,1.151614,335.010348,264.455032
11.928000,1.058054,332.871155,260.121533
11.936000,1.067723,334.365075,256.874350
11.944000,1.090332,334.811941,253.236807
11.952000,1.177395,334.494852,261.010559
11.960000,1.212895,337.878846,259.698253
11.968000,1.116114,338.025180,263.156546
11.976000,1.203227,333.648972,261.626415
11.984000,1.229009,335.677682,261.413339
11.992000,1.116114,334.409895,257.989970
12.000000,1.280623,335.147675,259.269742
12.008000,1.251618,336.088867,263.756974
12.016000,1.290341,335.780709,255.174611
12.024000,1.251618,337.630458,259.053646
12.032000,1.035496,337.537212,264.786482
12.040000,1.083886,337.067322,262.812555
12.048000,1.122559,333.127376,260.363756
12.056000,1.038718,332.432140,261.178824
12.064000,1.161282,341.102854,257.467103
12.072000,1.064500,343.184822,262.951157
12.080000,1.209673,336.685728,258.595868
12.088000,1.070945,334.135592,266.863039
12.096000,1.145168,333.651556,266.035316
12.104000,1.058054,334.445019,264.133563
12.112000,0.935491,338.607960,259.922552
12.120000,1.106445,338.579972,261.267356
12.128000,1.048386,341.029184,260.677012
12.136000,1.161282,333.651279,260.898973
12.144000,0.980659,333.488672,264.982850
12.152000,1.074168,333.539152,267.021274
12.160000,0.935491,337.840955,265.060537
12.168000,0.945159,332.584734,262.036797
12.176000,0.974163,338.746737,263.624940
12.184000,0.845154,338.531633,261.867663
12.192000,0.919327,336.424894,265.627972
12.200000,0.903214,342.040780,263.536096
12.208000,0.867713,338.842543,260.883589
12.216000,0.845154,334.481090,263.065559
12.224000,0.967718,338.755034,268.250020
12.232000,0.922550,342.192180,267.350292
12.240000,0.809654,338.575942,261.025155
12.248000,0.954827,338.759622,263.851670
12.256000,1.416127,345.012384,263.577344
12.264000,1.977432,341.086047,263.661958
12.272000,2.138718,335.137466,263.717441
12.280000,1.251618,337.133817,262.794608
12.288000,0.825818,341.240768,265.823823
12.296000,0.738705,337.768080,264.642936
12.304000,0.703204,340.306179,263.684194
12.312000,0.683868,339.218336,262.768482
12.320000,0.699982,338.936374,268.886143
12.328000,0.664482,335.481710,267.527105
12.336000,0.725814,342.179587,267.815247
12.344000,0.916104,336.505740,263.812572
12.352000,0.951604,333.087597,263.709892
12.360000,0.974163,340.531420,257.832930
12.368000,0.825818,338.429736,267.495987
12.376000,0.987105,334.609425,261.099530
12.384000,0.916104,338.208980,265.240548
12.392000,1.058054,341.563434,268.437823
12.400000,1.058054,339.019853,264.765125
12.408000,0.903214,341.043958,265.156566
12.416000,1.141946,337.019515,269.778027
12.424000,1.148391,338.305601,259.378367
12.432000,1.122559,340.380250,262.774737
12.440000,1.141946,340.048804,263.878175
12.448000,1.161282,341.867145,261.167703
12.456000,1.261286,342.725813,263.987187
12.464000,1.177395,343.155114,259.455709
12.472000,1.225786,341.918352,261.790851
12.480000,1.109668,336.773458,264.797068
12.488000,1.132227,334.415397,260.961914
12.496000,1.122559,343.955341,260.548306
12.504000,1.090332,336.898044,256.318451
12.512000,1.138723,338.794004,258.606996
12.520000,1.248396,337.720514,260.788637
12.528000,1.109668,337.562748,262.207674
12.536000,1.109668,340.707720,261.521792
12.544000,1.080613,341.350075,257.352946
12.552000,1.270954,337.375359,262.912625
12.560000,1.254841,338.694357,262.839828
12.568000,1.290341,337.835155,261.603265
12.576000,1.200005,339.052809,259.871090
12.584000,1.158059,343.056726,263.763924
12.592000,1.145168,339.410011,262.344105
12.600000,1.135500,336.020812,261.700971
12.608000,1.170950,342.023297,267.715208
12.616000,1.200005,332.971331,258.333718
12.624000,1.025777,332.074950,256.669593
12.632000,1.187114,337.245918,266.670800
12.640000,1.190336,338.994195,256.384556
12.648000,1.245173,341.027489,254.673269
12.656000,1.277400,331.985888,259.750128
12.664000,1.206450,336.299665,258.468560
12.672000,1.270954,335.068483,258.640875
12.680000,1.338682,331.786915,260.762460
12.688000,1.300009,334.302717,258.938276
12.696000,1.161282,338.434158,257.778611
12.704000,1.312900,340.050080,263.018521
12.712000,1.212895,338.241204,263.137290
12.720000,1.103223,336.004255,258.819038
12.728000,1.293564,334.064232,261.851128
12.736000,1.161282,335.742846,259.632006
12.744000,1.196782,336.577224,260.172846
12.752000,1.229009,338.578614,258.431788
12.760000,1.193559,339.317640,257.279557
12.768000,1.048386,335.494712,259.678318
12.776000,1.209673,334.672693,261.272417
12.784000,1.409682,334.801230,259.636412
12.792000,1.074168,336.068623,263.805720
12.800000,0.996773,335.930686,257.534928
12.808000,0.445136,339.689464,260.686138
12.816000,0.229014,337.347332,258.458776
12.824000,0.509641,337.290605,265.980193
12.832000,0.545141,337.262500,261.122132
12.840000,0.235459,336.688521,259.242492
12.848000,0.099954,339.775223,260.309723
12.856000,0.103227,338.093686,265.210950
12.864000,0.135454,334.151539,266.136270
12.872000,0.009668,338.991288,261.193018
12.880000,0.000000,339.191132,267.164996
12.888000,0.029004,339.628170,258.437809
12.896000,0.509641,330.335166,263.681322
12.904000,1.109668,331.578240,262.829260
12.912000,1.425795,339.042097,262.652552
12.920000,0.277404,336.973998,267.985185
12.928000,0.054836,338.268376,261.651778
12.936000,0.003223,338.004937,255.218308
12.944000,0.003223,339.030411,267.060587
12.952000,0.000000,335.389009,261.753339
12.960000,0.038672,342.604628,261.325444
12.968000,0.009668,334.489902,260.973620
12.976000,0.306409,335.755963,260.979751
12.984000,0.364518,340.670219,261.231171
12.992000,0.332241,340.565557,261.288337
13.000000,0.454804,335.919071,267.749526
13.008000,0.587086,336.494048,265.921290
13.016000,0.554809,337.908574,262.787287
13.024000,0.574195,342.348603,268.108754
13.032000,0.548363,341.015514,266.519836
13.040000,0.587086,334.552301,264.261519
13.048000,0.696759,341.914759,261.094734
13.056000,0.732259,338.902427,265.119256
13.064000,0.758041,335.750559,264.165514
13.072000,0.890323,337.134785,266.913715
13.080000,0.899991,339.960681,261.345380
13.088000,0.938714,335.723911,267.672517
13.096000,1.103223,337.488049,266.471949
13.104000,0.909659,335.964774,267.549932
13.112000,0.912882,330.112844,262.875035
13.120000,0.880655,337.372962,267.578277
13.128000,1.003218,335.319421,262.080647
13.136000,0.899991,341.846048,257.538693
13.144000,0.922550,339.977192,266.243180
13.152000,0.803209,341.279839,261.313053
13.160000,0.987105,337.236990,262.556407
13.168000,0.738705,340.056371,265.677934
13.176000,0.835486,340.309775,265.798730
13.184000,0.870936,341.025918,257.198633
13.192000,0.816100,337.354645,262.368181
13.200000,0.996773,336.572990,264.647151
13.208000,0.954827,337.283006,262.304777
13.216000,0.999995,337.111328,265.686890
13.224000,0.870936,341.626922,264.178186
13.232000,0.903214,345.587186,262.200342
13.240000,1.032273,342.608960,263.973605
13.248000,1.096777,339.379361,260.642061
13.256000,1.080613,341.632674,259.931505
13.264000,1.174173,341.711331,260.354928
13.272000,1.035496,342.704431,257.210041
13.280000,1.148391,343.009443,259.405652
13.288000,1.109668,345.170510,257.042577
13.296000,1.116114,338.528819,258.039263
13.304000,1.170950,342.268729,261.776692
13.312000,1.090332,339.870337,263.478949
13.320000,1.222564,340.496651,261.459463
13.328000,1.090332,339.163247,264.765869
13.336000,1.141946,340.734501,257.814242
13.344000,1.125782,331.759460,262.526727
13.352000,1.229009,338.580910,262.449870
13.360000,1.161282,336.584150,261.983096
13.368000,1.293564,339.889045,258.840101
13.376000,1.132227,343.584556,258.049181
13.384000,1.145168,340.971820,265.584573
13.392000,1.170950,338.874103,265.803960
13.400000,1.245173,338.361730,267.275022
13.408000,1.254841,335.775618,265.152835
13.416000,1.238727,337.442266,262.470554
13.424000,1.290341,335.661416,257.230916
13.432000,1.325791,335.808844,260.701912
13.440000,1.222564,335.216478,262.306345
13.448000,1.322568,340.924078,259.797441
13.456000,1.122559,335.403056,260.350490
13.464000,1.222564,335.131807,254.013376
13.472000,1.125782,331.676187,264.836185
13.480000,1.151614,339.051165,260.324837
13.488000,1.058054,335.542806,259.827416
13.496000,1.025777,339.707124,261.254405
13.504000,1.280623,326.859818,262.445938
13.512000,1.180618,339.254252,257.880136
13.520000,1.064500,333.572474,261.100737
13.528000,1.125782,335.072841,260.765411
13.536000,1.167727,329.627213,260.192453
13.544000,1.058054,336.649914,261.179773
13.552000,1.470964,339.309026,260.375039
13.560000,2.054827,334.681448,259.975235
13.568000,2.587127,333.090458,263.107472
13.576000,1.667750,335.113491,258.966769
13.584000,1.022554,331.521411,264.539194
13.592000,0.929046,339.878081,262.116837
13.600000,1.019332,331.007119,265.218670
13.608000,0.961273,336.991968,262.327826
13.616000,0.848377,337.423354,258.176754
13.624000,0.958050,334.469572,264.630023
13.632000,0.964495,331.632888,264.953587
13.640000,0.906436,335.482443,262.750051
13.648000,1.167727,335.696339,264.233700
13.656000,0.929046,334.950060,269.156134
13.664000,1.164504,335.595255,263.986287
13.672000,1.080613,339.399054,260.947847
13.680000,1.109668,331.123186,266.770879
13.688000,1.183841,335.866908,268.805426
13.696000,1.174173,333.731492,262.227800
13.704000,1.138723,335.195693,265.528976
13.712000,1.219341,331.882466,259.513152
13.720000,1.174173,336.576208,265.086509
13.728000,1.145168,336.587626,263.798557
13.736000,1.261286,331.500246,262.318613
13.744000,1.322568,335.723012,262.329312
13.752000,1.309677,340.679441,261.241415
13.760000,1.354846,334.320809,262.659229
13.768000,1.377404,338.502650,265.000569
13.776000,1.264509,333.051786,266.469029
13.784000,1.306455,340.003521,259.605197
13.792000,1.087109,336.654908,263.587844
13.800000,1.003218,336.390325,264.817855
13.808000,0.958050,338.353064,259.772720
13.816000,1.038718,339.914223,262.748353
13.824000,1.019332,339.735769,265.335073
13.832000,0.835486,341.480228,265.048792
13.840000,0.874159,340.006431,264.239991
13.848000,1.038718,338.852628,268.360984
13.856000,0.996773,337.880299,262.245667
13.864000,1.087109,335.616062,267.122382
13.872000,1.019332,343.005660,263.453613
13.880000,0.990327,335.085814,268.041911
13.888000,1.119336,339.289518,267.993023
13.896000,1.048386,339.022703,264.969999
13.904000,0.983882,334.536597,263.148681
13.912000,1.125782,341.555950,268.745720
13.920000,1.096777,333.778009,261.092959
13.928000,0.974163,339.646783,264.808224
13.936000,1.109668,338.331047,262.251770
13.944000,1.035496,337.688018,261.211049
13.952000,1.064500,335.043593,260.427174
13.960000,1.103223,336.813483,265.439015
13.968000,0.996773,341.371641,264.352490
13.976000,1.009664,338.402395,261.819674
13.984000,1.116114,334.877753,260.215174
13.992000,0.922550,340.679148,265.456122
14.000000,1.054832,340.120421,266.547144
14.008000,1.067723,337.994129,264.735711
14.016000,1.074168,336.666488,269.794199
14.024000,0.987105,339.072419,265.791492
14.032000,1.025777,340.578277,262.673006
14.040000,0.980659,341.669869,264.704520
14.048000,1.093555,337.722936,258.045289
14.056000,1.141946,343.086730,265.619121
14.064000,1.041941,344.943780,260.004445
14.072000,1.045164,340.008216,257.775968
14.080000,1.183841,341.854678,260.161667
14.088000,1.022554,339.537285,263.308981
14.096000,1.122559,337.836173,263.733352
14.104000,1.300009,342.321533,264.056446
14.112000,1.190336,335.494499,258.810426
14.120000,1.025777,339.453188,257.873307
14.128000,1.132227,341.320913,261.073377
14.136000,1.051609,338.896069,265.072391
14.144000,0.990327,341.650487,265.098633
14.152000,0.970941,340.982934,257.678386
14.160000,1.012886,337.904040,261.172902
14.168000,1.080613,340.986353,264.035063
14.176000,1.087109,335.910401,265.328229
14.184000,1.025777,335.916641,260.992828
14.192000,0.964495,339.736126,262.121380
14.200000,0.999995,339.240238,262.457880
14.208000,0.935491,340.048249,256.915639
14.216000,1.161282,338.288194,262.523014
14.224000,1.825814,337.616798,261.804517
14.232000,2.235500,334.425361,263.357761
14.240000,2.009659,341.724086,261.239537
14.248000,1.041941,337.995495,258.872879
14.256000,0.825818,336.199956,254.625083
14.264000,0.883877,334.802562,262.835967
14.272000,0.841932,339.110683,257.458384
14.280000,0.858045,334.991352,259.021120
14.288000,0.838709,341.816977,258.788099
14.296000,0.790318,332.072244,261.106311
14.304000,0.970941,332.690232,259.156728
14.312000,0.970941,334.503348,262.644262
14.320000,0.906436,332.949242,259.880144
14.328000,1.148391,334.376007,261.837726
14.336000,1.170950,337.891863,264.274671
14.344000,1.170950,337.632051,260.736610
14.352000,0.951604,336.443984,260.388666
14.360000,1.054832,335.248594,261.068411
14.368000,1.119336,335.465842,262.367832
14.376000,1.125782,339.026273,262.312038
14.384000,1.064500,332.649694,261.661823
14.392000,1.170950,332.451552,263.792966
14.400000,1.100000,337.140968,264.168343
14.408000,1.351623,334.590924,259.612443
14.416000,1.254841,339.236365,269.577269
14.424000,1.193559,335.546357,261.523798
14.432000,1.312900,330.852860,264.385383
14.440000,1.151614,334.601673,259.734852
14.448000,1.112891,335.330175,261.713383
14.456000,0.987105,334.636261,267.406903
14.464000,1.141946,339.585923,263.208108
14.472000,1.070945,333.805049,266.656514
14.480000,0.906436,333.448905,266.838903
14.488000,0.945159,333.425588,264.274458
14.496000,1.051609,334.886644,256.364112
14.504000,0.935491,340.187929,263.802382
14.512000,1.045164,332.782680,267.585071
14.520000,0.945159,333.636466,262.951495
14.528000,0.951604,337.586022,261.623032
14.536000,0.829041,336.611681,265.696489
14.544000,1.106445,339.046217,259.998462
14.552000,0.999995,338.037615,267.160663
14.560000,0.906436,335.699496,266.018217
14.568000,1.012886,333.794145,269.592841
14.576000,1.074168,338.350643,266.433090
14.584000,0.945159,339.841933,261.203988
14.592000,0.987105,341.186424,260.090807
14.600000,1.087109,337.866779,265.386269
14.608000,0.954827,338.712967,265.070691
14.616000,0.954827,339.988552,265.098157
14.624000,0.874159,338.724791,266.780995
14.632000,0.948382,341.672613,267.462376
14.640000,0.903214,339.353228,265.796833
14.648000,0.929046,340.359757,266.408683
14.656000,1.074168,340.495762,261.512557
14.664000,0.961273,340.538986,259.396531
14.672000,0.835486,339.079296,263.497438
14.680000,1.019332,337.215624,262.399680
14.688000,0.945159,333.276564,265.376647
14.696000,0.941936,335.032937,268.066117
14.704000,0.948382,336.361784,262.003839
14.712000,0.832264,344.144359,259.956089
14.720000,1.016109,343.680551,262.439286
14.728000,1.103223,337.018699,264.548560
14.736000,1.038718,332.715207,264.470500
14.744000,1.106445,337.605022,263.783821
14.752000,0.993550,340.303746,265.105524
14.760000,0.983882,339.194069,262.531063
14.768000,0.954827,339.146756,261.189517
14.776000,0.961273,344.038690,263.451040
14.784000,0.848377,338.848776,267.164879
14.792000,0.909659,339.880652,268.401314
14.800000,0.699982,336.731551,254.597179
14.808000,0.806432,336.517822,266.565841
14.816000,0.941936,339.911392,264.437265
14.824000,0.858045,341.155710,256.475675
14.832000,0.987105,339.418094,257.773692
14.840000,0.951604,336.466466,261.929905
14.848000,1.032273,337.178167,258.882191
14.856000,0.996773,342.568136,261.232075
14.864000,1.116114,335.551195,260.530622
14.872000,1.596750,345.063232,258.251958
14.880000,2.254836,338.866593,261.488388
14.888000,2.216114,339.186192,263.203744
14.896000,1.161282,334.599787,255.569345
14.904000,0.793541,337.727500,261.009996
14.912000,0.735482,340.905284,260.906727
14.920000,0.806432,333.598591,260.287027
14.928000,0.712873,346.023397,262.966538
14.936000,0.806432,340.434504,262.148617
14.944000,0.754818,338.881878,258.313896
14.952000,0.909659,338.450943,264.948865
14.960000,0.912882,342.151228,257.759761
14.968000,0.748373,335.795692,262.363618
14.976000,0.864491,343.683390,265.477560
14.984000,0.935491,340.708027,259.384158
14.992000,0.954827,337.321409,260.673274
15.000000,0.919327,337.423890,255.233391
15.008000,0.974163,336.268141,263.041315
15.016000,0.919327,337.323738,262.768958
15.024000,1.167727,334.233894,263.574307
15.032000,1.006441,335.484098,258.376064
15.040000,1.012886,337.347718,261.448746
15.048000,1.229009,338.679652,262.537656
15.056000,1.135500,338.919347,262.506526
15.064000,1.203227,340.051536,252.706804
15.072000,1.132227,335.799425,260.357692
15.080000,1.219341,334.063580,256.761817
15.088000,1.135500,335.224647,261.208110
15.096000,1.138723,338.354446,260.318763
15.104000,0.932268,334.452121,266.534861
15.112000,1.038718,343.365780,259.693266
15.120000,0.922550,338.303346,260.902558
15.128000,0.877432,336.855804,258.096233
15.136000,0.864491,338.450348,263.709215
15.144000,0.880655,329.867369,262.562853
15.152000,0.819322,332.949886,260.939440
15.160000,0.919327,336.238381,262.754183
15.168000,0.899991,336.246719,262.171203
15.176000,0.893545,337.553725,258.825581
15.184000,0.990327,332.417427,266.616179
15.192000,0.999995,338.581680,260.524706
15.200000,0.964495,332.020359,259.933301
15.208000,1.077391,339.537094,259.450658
15.216000,1.151614,334.150164,261.194174
15.224000,1.061277,332.136394,262.382121
15.232000,1.070945,338.288115,264.932518
15.240000,1.025777,335.916952,262.478069
15.248000,1.125782,337.944749,259.741021
15.256000,1.087109,334.906818,268.392661
15.264000,1.132227,337.226654,265.550755
15.272000,1.051609,336.199330,266.580383
15.280000,1.090332,337.384798,265.109027
15.288000,1.058054,339.558408,264.158874
15.296000,0.935491,331.774097,257.727165
15.304000,1.154836,337.075093,261.204684
15.312000,1.096777,336.620027,261.374540
15.320000,1.077391,338.201082,263.054242
15.328000,1.125782,335.040965,265.059694
15.336000,1.048386,341.091804,264.740662
15.344000,1.125782,335.705698,263.913605
15.352000,0.974163,341.211526,266.569612
15.360000,1.048386,336.588780,266.150669
15.368000,1.238727,332.857133,264.243332
15.376000,1.200005,340.364824,264.517224
15.384000,1.180618,337.577157,263.511310
15.392000,1.161282,333.028189,263.172205
15.400000,1.177395,342.537495,261.844476
15.408000,1.174173,338.237238,269.603523
15.416000,1.229009,338.323553,261.926454
15.424000,1.106445,343.322202,266.171830
15.432000,1.022554,333.472753,270.016899
15.440000,0.999995,336.005840,260.937509
15.448000,1.016109,331.768381,269.135670
15.456000,0.993550,337.419137,259.628712
15.464000,1.029000,334.313956,265.568265
15.472000,1.074168,340.620471,265.505116
15.480000,0.922550,340.512796,262.029380
15.488000,1.041941,337.000884,265.194345
15.496000,1.009664,336.970177,266.000253
15.504000,0.993550,340.675400,263.703332
15.512000,1.016109,342.688575,266.564997
15.520000,1.296786,337.447605,267.062274
15.528000,1.964541,341.313724,264.292869
15.536000,2.277446,334.762724,264.835949
15.544000,2.012932,333.992985,264.862898
15.552000,0.919327,342.209562,258.191608
15.560000,0.848377,338.460373,261.827821
15.568000,0.780650,341.939229,259.745398
15.576000,0.738705,340.324263,256.638270
15.584000,0.787095,342.038896,266.393297
15.592000,0.806432,341.018959,259.983068
15.600000,0.832264,339.357479,263.546207
15.608000,0.829041,348.974070,257.395606
15.616000,0.751595,346.649941,260.353820
15.624000,0.980659,333.464336,262.959816
15.632000,0.745150,340.391626,264.350865
15.640000,0.987105,342.483107,261.913109
15.648000,0.861268,340.480508,260.687130
15.656000,1.029000,340.582619,262.692980
15.664000,1.012886,341.445945,260.646179
15.672000,0.864491,340.716670,264.282248
15.680000,1.070945,345.069470,258.593829
15.688000,1.080613,340.337257,264.148776
15.696000,1.087109,334.860417,262.283631
15.704000,0.974163,336.609647,261.090785
15.712000,1.167727,342.121023,261.283711
15.720000,1.100000,338.364265,263.983802
15.728000,1.177395,337.194552,259.272819
15.736000,1.167727,345.051676,266.512843
15.744000,1.116114,341.033465,262.455531
15.752000,1.080613,334.073434,263.573953
15.760000,1.035496,343.492948,261.440477
15.768000,0.829041,336.199444,258.656356
15.776000,0.945159,336.147573,259.937046
15.784000,1.087109,329.695028,262.748327
15.792000,0.767709,331.653893,261.001794
15.800000,0.767709,338.958739,260.342062
15.808000,0.793541,332.712398,257.682471
15.816000,0.780650,335.478727,259.484066
15.824000,0.906436,337.853342,263.790455
15.832000,0.793541,329.604198,267.110490
15.840000,0.841932,337.269795,263.024387
15.848000,0.887100,335.274848,260.204393
15.856000,0.851600,335.982042,260.832915
15.864000,0.919327,338.923907,259.683120
15.872000,0.880655,337.177341,260.080622
15.880000,0.983882,334.915678,260.867707
15.888000,0.925772,337.542150,265.742531
15.896000,0.877432,338.429047,259.773749
15.904000,1.048386,336.677044,261.766775
15.912000,1.006441,336.334457,258.324471
15.920000,0.877432,333.965770,260.394655
15.928000,0.912882,343.425123,257.703751
15.936000,0.893545,335.394542,259.394520
15.944000,1.006441,336.053128,263.761472
15.952000,0.754818,339.773245,264.520818
15.960000,0.890323,336.752225,262.427872
15.968000,1.090332,332.084530,261.600180
15.976000,1.064500,332.885041,256.257669
15.984000,0.999995,333.233212,268.029093
15.992000,0.951604,333.787936,262.306424
16.000000,1.135500,335.944961,257.842423
16.008000,0.883877,337.931467,262.598421
16.016000,0.880655,333.298393,263.357419
16.024000,0.880655,336.345925,261.711619
16.032000,0.996773,339.603468,258.608691
16.040000,0.929046,330.928094,262.325568
16.048000,1.087109,336.392157,264.312053
16.056000,0.961273,336.859930,262.679938
16.064000,0.987105,339.554168,261.298797
16.072000,0.983882,335.232723,265.624146
16.080000,0.996773,337.782907,261.165526
16.088000,1.158059,333.632518,257.287238
16.096000,1.022554,334.499856,263.374869
16.104000,1.135500,335.728137,265.210323
16.112000,1.125782,341.392865,266.301985
16.120000,0.977386,338.528444,258.370930
16.128000,0.961273,338.216844,261.591462
16.136000,0.983882,338.247990,265.016199
16.144000,0.983882,338.520061,263.129767
16.152000,0.929046,335.123764,262.049703
16.160000,0.841932,339.710403,270.790205
16.168000,0.867713,340.201661,257.792336
16.176000,0.935491,340.339820,267.310518
16.184000,0.919327,338.520856,265.164084
16.192000,1.170950,336.375824,265.674699
16.200000,0.967718,334.667827,265.426056
16.208000,1.064500,342.842939,264.082801
16.216000,1.212895,334.557496,268.827586
16.224000,1.729032,338.832335,266.311364
16.232000,2.064546,345.599779,268.098863
16.240000,2.080659,333.693342,270.026275
16.248000,1.167727,334.788996,262.817157
16.256000,0.903214,334.219125,261.414634
16.264000,0.770932,337.634434,263.262989
16.272000,0.799986,336.713275,265.106368
16.280000,0.745150,337.948969,261.032935
16.288000,0.838709,338.049370,267.795207
16.296000,0.745150,339.996304,265.049608
16.304000,0.854823,335.290814,263.247037
16.312000,0.758041,339.143594,269.950465
16.320000,1.029000,339.732649,262.130424
16.328000,0.954827,338.604163,263.015000
16.336000,0.967718,343.345586,264.832147
16.344000,0.896768,341.581588,262.304322
16.352000,0.999995,341.284917,261.756084
16.360000,0.951604,337.481688,267.785270
16.368000,1.054832,344.059620,262.885087
16.376000,1.061277,343.546932,258.198396
16.384000,1.112891,339.037248,261.910087
16.392000,1.112891,339.108805,266.584138
16.400000,1.222564,344.942607,263.011444
16.408000,1.041941,340.780644,268.316048
16.416000,1.258064,335.896714,263.515457
16.424000,1.125782,334.808069,256.157662
16.432000,1.174173,336.139270,262.891418
16.440000,1.238727,338.674288,256.118843
16.448000,1.112891,343.053161,263.792858
16.456000,1.054832,340.443624,261.362518
16.464000,0.977386,338.309804,261.984812
16.472000,0.906436,337.505622,252.961602
16.480000,0.999995,336.531810,260.550362
16.488000,0.806432,344.179620,259.026702
16.496000,0.909659,336.788091,261.530152
16.504000,0.880655,335.024106,262.598696
16.512000,0.929046,338.762380,257.747676
16.520000,0.832264,337.628230,261.211054
16.528000,0.864491,343.991000,256.697533
16.536000,0.996773,341.251810,263.190769
16.544000,0.822545,340.240998,253.334308
16.552000,0.948382,334.289722,260.983399
16.560000,0.941936,339.923352,259.197796
16.568000,0.996773,335.255033,260.109176
16.576000,1.058054,335.725611,267.491905
16.584000,0.935491,337.876313,256.527438
16.592000,0.899991,334.731483,264.037044
16.600000,1.116114,336.613152,266.701898
16.608000,1.035496,333.362286,261.554437
16.616000,0.925772,340.740057,257.105811
16.624000,0.941936,335.446462,260.646478
16.632000,0.893545,333.496683,261.058002
16.640000,0.903214,332.122096,257.845787
16.648000,0.932268,335.697501,265.075209
16.656000,0.987105,339.923288,259.560915
16.664000,1.058054,339.097232,257.027420
16.672000,1.009664,339.224366,259.873085
16.680000,1.022554,332.972310,259.801089
16.688000,0.783873,328.888428,259.746989
16.696000,1.087109,339.121890,263.161164
16.704000,0.958050,342.004543,256.472989
16.712000,0.974163,335.656086,255.197148
16.720000,0.983882,335.262920,261.224434
16.728000,0.948382,338.612195,261.555856
16.736000,0.935491,338.940880,261.499161
16.744000,0.951604,337.368153,264.434108
16.752000,0.925772,338.263852,261.982684
16.760000,1.038718,334.040866,263.782466
16.768000,1.009664,336.610630,264.212463
16.776000,1.103223,334.503597,263.109063
16.784000,1.022554,341.562224,261.750958
16.792000,1.054832,334.300323,259.803063
16.800000,1.016109,333.164922,262.535330
16.808000,0.919327,333.620869,265.031754
16.816000,0.929046,334.404846,255.475137
16.824000,0.890323,336.906941,261.884819
16.832000,0.935491,334.426826,266.381448
16.840000,0.896768,331.967046,266.285145
16.848000,0.948382,335.569462,266.215250
16.856000,0.922550,333.201383,266.675933
16.864000,1.041941,334.423834,263.601663
16.872000,0.854823,338.083008,262.884463
16.880000,1.006441,335.508890,264.285469
16.888000,0.854823,338.553117,258.655054
16.896000,1.093555,337.837185,264.237050
16.904000,0.912882,339.795470,268.381170
16.912000,1.312900,336.765180,261.304138
16.920000,1.761309,340.609539,261.730675
16.928000,2.229055,334.583326,252.862707
16.936000,1.899986,337.652318,265.060083
16.944000,1.093555,340.587805,261.255195
16.952000,0.761263,338.706926,260.348358
16.960000,0.677423,340.326719,264.126167
16.968000,0.751595,335.732413,267.522983
16.976000,0.703204,340.979482,267.589736
16.984000,0.858045,346.943926,265.499037
16.992000,0.909659,337.261270,266.944386
17.000000,0.948382,335.986138,258.436090
17.008000,0.932268,344.834363,266.690309
17.016000,0.980659,337.617655,266.045032
17.024000,0.996773,336.741461,267.468936
17.032000,0.925772,339.766131,268.781182
17.040000,1.029000,338.480153,263.569839
17.048000,0.938714,334.775110,263.720656
17.056000,1.070945,334.919300,266.302067
17.064000,1.022554,337.925572,265.618839
17.072000,1.161282,339.901689,265.415870
17.080000,1.106445,338.229565,267.115986
17.088000,1.164504,337.278509,262.122990
17.096000,1.206450,337.022608,264.152033
17.104000,1.109668,341.898540,266.210725
17.112000,1.154836,340.490406,263.964951
17.120000,1.332236,341.202797,261.728250
17.128000,1.116114,342.368907,259.889871
17.136000,1.167727,338.689137,257.331750
17.144000,1.058054,340.069325,261.185035
17.152000,0.925772,340.515491,266.056378
17.160000,1.070945,336.694051,265.330334
17.168000,0.922550,338.930356,262.349471
17.176000,0.870936,341.493933,262.211738
17.184000,0.906436,339.549236,262.266486
17.192000,0.829041,338.742417,258.498858
17.200000,0.745150,341.416472,256.112231
17.208000,0.825818,337.254292,263.962534
17.216000,0.851600,339.171508,260.384358
17.224000,0.925772,344.051367,261.310379
17.232000,0.848377,338.625137,263.034203
17.240000,0.896768,338.946082,260.943220
17.248000,0.974163,341.588890,264.540362
17.256000,1.016109,340.708517,265.462918
17.264000,1.009664,335.993981,258.589029
17.272000,0.999995,340.800835,265.122695
17.280000,0.951604,343.706990,260.420059
17.288000,1.070945,338.891909,258.304233
17.296000,0.941936,337.600267,264.994945
17.304000,0.983882,338.164488,264.813226
17.312000,1.019332,338.081863,263.135714
17.320000,1.035496,338.231852,263.085977
17.328000,1.087109,342.134384,258.811386
17.336000,1.074168,340.390162,258.527056
17.344000,0.958050,338.010021,259.798551
17.352000,1.012886,334.705814,261.339887
17.360000,0.954827,337.679728,256.237932
17.368000,0.787095,341.418537,262.416874
17.376000,0.803209,337.783524,254.682350
17.384000,0.941936,328.858334,258.812166
17.392000,0.974163,335.141212,258.498061
17.400000,0.893545,329.725028,259.504044
17.408000,0.990327,340.843248,259.347498
17.416000,0.903214,337.517560,258.750494
17.424000,0.941936,333.749825,260.796733
17.432000,1.141946,338.305799,256.188058
17.440000,1.003218,339.486026,263.188581
17.448000,0.951604,332.164083,255.730679
17.456000,1.177395,337.987381,261.905167
17.464000,1.048386,337.616870,259.170038
17.472000,1.048386,335.971260,260.922030
17.480000,0.961273,336.851054,261.131659
17.488000,0.977386,337.176113,261.022393
17.496000,0.761263,336.863733,262.465587
17.504000,0.880655,334.698715,263.077865
17.512000,0.887100,342.100273,255.233327
17.520000,0.845154,339.534761,257.290504
17.528000,0.854823,336.467535,266.458293
17.536000,0.761263,335.664484,259.681611
17.544000,0.793541,330.446021,261.656787
17.552000,0.829041,337.138567,255.737119
17.560000,0.699982,337.809328,263.010359
17.568000,0.751595,342.363010,262.088710
17.576000,0.999995,332.470198,258.939856
17.584000,1.864537,338.685653,262.859172
17.592000,2.064546,334.993763,267.322409
17.600000,1.045164,334.197439,266.097464
17.608000,0.454804,339.379536,269.660083
17.616000,0.412909,332.445862,261.738699
17.624000,0.499973,336.472346,261.431668
17.632000,0.261291,336.570187,269.433142
17.640000,0.390300,336.192118,264.790385
17.648000,0.519359,333.119803,264.862884
17.656000,0.467745,337.116919,264.643145
17.664000,0.603200,343.187653,257.801513
17.672000,0.699982,332.862865,260.430267
17.680000,0.722591,340.902520,263.032113
17.688000,0.670977,332.663458,265.107563
17.696000,0.851600,335.212532,261.770708
17.704000,0.922550,334.561599,265.830046
17.712000,0.858045,334.314233,262.770561
17.720000,0.845154,338.606645,258.545898
17.728000,1.006441,339.045362,262.106864
17.736000,1.054832,335.500618,261.112867
17.744000,0.919327,338.637242,262.765144
17.752000,1.125782,337.010579,266.025610
17.760000,1.093555,338.869325,263.002695
17.768000,1.290341,334.738920,258.722794
17.776000,1.248396,339.164815,265.228950
17.784000,1.132227,332.095233,256.439109
17.792000,1.190336,338.083872,263.831285
17.800000,1.206450,338.280050,264.467942
17.808000,1.180618,337.900634,266.895591
17.816000,1.238727,341.543392,262.607435
17.824000,1.112891,330.762279,261.335626
17.832000,1.132227,339.886943,266.609625
17.840000,0.951604,335.290969,268.987000
17.848000,1.158059,332.848870,268.901417
17.856000,1.090332,340.368358,267.503559
17.864000,0.987105,339.636969,267.785890
17.872000,1.029000,340.784929,266.290554
17.880000,1.096777,332.379496,266.195543
17.888000,1.080613,329.692227,260.121421
17.896000,1.158059,337.877040,261.416778
17.904000,1.319345,335.708932,258.382586
17.912000,1.358068,343.938837,259.997849
17.920000,1.235454,341.225913,263.302406
17.928000,1.187114,339.073797,267.061741
17.936000,1.300009,332.596277,261.374635
17.944000,1.129004,342.937411,262.170301
17.952000,1.154836,342.314415,262.385868
17.960000,1.190336,343.438078,258.893499
17.968000,1.254841,341.875336,263.995625
17.976000,1.187114,340.837584,260.011505
17.984000,1.177395,338.988852,255.697663
17.992000,1.109668,339.230641,264.983765
18.000000,1.151614,340.867236,263.105936
18.008000,1.135500,340.214678,257.587521
18.016000,1.022554,339.969778,264.002822
18.024000,1.187114,344.115262,257.857773
18.032000,1.212895,335.498352,261.990865
18.040000,1.119336,341.981965,254.449753
18.048000,1.154836,337.308952,264.637425
18.056000,1.258064,336.742682,262.206892
18.064000,1.135500,336.191860,258.640279
18.072000,1.132227,343.484684,262.285774
18.080000,1.377404,339.973448,261.919164
18.088000,1.296786,343.278210,261.462998
18.096000,1.235454,343.149380,260.750271
18.104000,1.283845,337.697824,260.614071
18.112000,1.280623,338.534094,258.864205
18.120000,1.193559,333.059133,260.008869
18.128000,1.206450,333.594484,263.310084
18.136000,1.116114,341.219737,263.550198
18.144000,1.122559,338.265688,262.109105
18.152000,1.022554,336.088961,259.185425
18.160000,1.190336,339.321515,256.261669
18.168000,1.016109,341.314767,263.016727
18.176000,1.054832,329.376994,259.956925
18.184000,1.122559,334.007406,262.117837
18.192000,1.041941,339.759805,259.191003
18.200000,1.112891,334.694680,258.243284
18.208000,0.909659,335.901776,258.983342
18.216000,1.167727,339.255385,259.186667
18.224000,1.745145,336.540556,265.234576
18.232000,2.367732,336.102996,256.477142
18.240000,2.232277,337.467037,259.773300
18.248000,1.077391,334.769009,250.314827
18.256000,0.906436,339.564771,261.327147
18.264000,0.848377,337.885108,254.322321
18.272000,0.712873,336.967705,261.895625
18.280000,0.909659,334.317542,262.274280
18.288000,0.787095,343.414012,259.676952
18.296000,0.790318,335.645323,253.552605
18.304000,0.980659,334.406207,261.937684
18.312000,0.993550,337.626688,260.624628
18.320000,0.980659,335.719596,259.982131
18.328000,1.206450,337.828782,264.822818
18.336000,1.106445,335.975628,265.811268
18.344000,1.193559,333.843693,259.332527
18.352000,1.261286,333.771345,266.609455
18.360000,1.261286,332.917135,264.822423
18.368000,1.396791,337.524401,266.282040
18.376000,1.316123,343.640980,265.336771
18.384000,1.209673,337.390604,262.990068
18.392000,1.383850,336.609456,260.827347
18.400000,1.300009,334.024799,266.473849
18.408000,1.325791,331.937206,261.068701
18.416000,1.306455,339.076162,260.921285
18.424000,1.306455,332.615952,265.047119
18.432000,1.270954,336.906347,261.697247
18.440000,1.229009,329.495968,262.286579
18.448000,1.290341,344.350957,258.009841
18.456000,1.090332,337.447224,263.307613
18.464000,1.187114,339.713483,262.099985
18.472000,0.945159,334.298831,261.179042
18.480000,1.003218,336.892469,262.919549
18.488000,1.038718,334.756178,263.681254
18.496000,0.922550,337.433323,260.198051
18.504000,0.848377,334.092484,268.534580
18.512000,0.874159,335.966335,267.657850
18.520000,0.932268,336.976977,265.347701
18.528000,0.854823,341.600108,265.885308
18.536000,0.835486,343.519849,261.621578
18.544000,0.932268,336.905372,265.247207
18.552000,0.819322,339.989864,266.474156
18.560000,0.887100,329.735764,268.653311
18.568000,0.735482,337.422359,262.229738
18.576000,0.996773,339.883054,266.963536
18.584000,0.925772,339.500143,258.060861
18.592000,0.858045,341.243393,265.260437
18.600000,0.990327,337.859867,265.186630
18.608000,0.903214,337.720993,266.269709
18.616000,0.929046,339.887708,268.160342
18.624000,0.990327,338.464630,259.561827
18.632000,1.025777,332.527803,267.078885
18.640000,0.916104,338.569458,265.745717
18.648000,0.916104,341.207896,260.787210
18.656000,0.883877,340.726978,260.595507
18.664000,1.054832,340.932578,262.517837
18.672000,0.948382,335.074219,263.108478
18.680000,0.883877,341.396775,262.778620
18.688000,0.780650,344.656606,258.479130
18.696000,0.961273,334.888623,262.139403
18.704000,0.948382,346.335873,264.237367
18.712000,0.790318,336.029546,265.814669
18.720000,0.870936,335.548711,264.654943
18.728000,0.883877,347.290147,260.225204
18.736000,1.058054,334.433315,263.465269
18.744000,0.825818,338.901744,262.463162
18.752000,0.990327,340.820009,264.558535
18.760000,1.051609,339.202981,261.403936
18.768000,1.041941,337.648300,264.254787
18.776000,1.032273,337.354823,259.843626
18.784000,0.909659,340.989288,259.328688
18.792000,0.945159,342.228385,258.047558
18.800000,0.899991,337.981624,260.087292
18.808000,0.767709,339.835848,257.184463
18.816000,0.764486,340.043494,261.945709
18.824000,0.899991,337.266760,258.381537
18.832000,0.919327,337.367095,256.347215
18.840000,0.732259,339.887643,261.744464
18.848000,0.929046,337.613036,260.056576
18.856000,0.835486,341.458150,261.592754
18.864000,0.974163,337.322266,257.574085
18.872000,0.764486,337.506648,260.660639
18.880000,0.793541,343.756689,260.525994
18.888000,1.277400,338.994454,259.059720
18.896000,2.009659,338.464800,264.742760
18.904000,2.235500,336.248770,259.702299
18.912000,1.319345,333.037928,262.989767
18.920000,0.761263,334.588158,260.006624
18.928000,0.541918,334.762451,261.476558
18.936000,0.654813,340.035361,260.293820
18.944000,0.570973,334.240408,260.801890
18.952000,0.629032,337.300498,262.246062
18.960000,0.683868,336.141538,260.343296
18.968000,0.522582,337.393183,262.720221
18.976000,0.764486,338.628339,262.933312
18.984000,0.812877,332.371455,259.778005
18.992000,0.838709,335.709185,262.097884
19.000000,0.783873,329.176310,256.438952
19.008000,0.835486,342.253200,258.780392
19.016000,0.945159,339.084632,255.421181
19.024000,0.887100,333.614387,259.970896
19.032000,0.887100,335.466200,260.465671
19.040000,0.945159,332.579479,265.275154
19.048000,1.009664,333.394566,260.052450
19.056000,1.135500,342.275460,260.870376
19.064000,1.025777,338.738838,259.028953
19.072000,1.048386,335.920763,256.608161
19.080000,1.238727,339.474139,268.522987
19.088000,1.164504,332.600950,261.094390
19.096000,0.987105,333.309737,256.948163
19.104000,1.161282,335.319015,267.924509
19.112000,1.070945,337.058677,261.093879
19.120000,1.177395,338.524810,262.807665
19.128000,1.041941,340.369700,262.344098
19.136000,0.903214,334.789298,259.926717
19.144000,0.864491,333.983409,263.559185
19.152000,0.935491,334.990824,265.754779
19.160000,0.883877,336.814074,259.933857
19.168000,0.758041,340.390931,258.930714
19.176000,0.912882,338.882106,262.822387
19.184000,0.922550,328.170320,264.770992
19.192000,1.058054,338.452264,262.550275
19.200000,0.790318,336.131742,265.341498
19.208000,0.819322,327.076181,265.197563
19.216000,0.964495,334.509786,256.846236
19.224000,0.990327,334.331370,266.955750
19.232000,1.048386,333.840755,260.250540
19.240000,0.929046,334.728563,260.820394
19.248000,0.925772,338.202781,261.114640
19.256000,1.074168,333.047265,262.807209
19.264000,0.974163,340.117120,263.274495
19.272000,1.006441,336.244546,259.719509
19.280000,1.158059,333.707746,262.425556
19.288000,0.932268,332.755653,261.763566
19.296000,1.161282,339.127406,263.966040
19.304000,1.058054,341.763371,266.876085
19.312000,1.006441,340.324616,261.768633
19.320000,1.025777,337.976875,262.901736
19.328000,1.077391,337.082477,262.640135
19.336000,1.122559,332.027986,267.421968
19.344000,1.070945,333.400046,269.688046
19.352000,1.019332,337.744160,265.075061
19.360000,1.016109,336.762214,260.313867
19.368000,1.080613,342.586289,265.043393
19.376000,1.135500,343.207319,268.102942
19.384000,0.987105,333.109418,266.820760
19.392000,0.935491,343.477582,266.790975
19.400000,1.032273,333.900001,265.546151
19.408000,1.083886,338.784641,263.623133
19.416000,1.032273,338.880271,264.948806
19.424000,1.164504,334.765056,272.861336
19.432000,1.077391,335.957400,267.995528
19.440000,1.109668,336.511490,262.872865
19.448000,1.025777,339.028643,262.980883
19.456000,1.100000,336.725552,258.457621
19.464000,0.880655,335.697313,265.252763
19.472000,1.048386,338.397550,263.662444
19.480000,1.006441,340.149601,262.658677
19.488000,0.961273,345.911163,263.180060
19.496000,0.977386,338.516559,260.277315
19.504000,1.025777,338.452595,264.188714
19.512000,1.064500,343.944116,264.160136
19.520000,0.854823,333.496754,265.139050
19.528000,0.970941,340.201790,257.623172
19.536000,0.996773,338.993959,261.627215
19.544000,0.887100,342.262264,260.141466
19.552000,1.074168,342.743992,261.856165
19.560000,1.383850,340.539796,261.871767
19.568000,1.987100,338.401459,258.681737
19.576000,2.216114,337.278918,262.196005
19.584000,1.354846,339.345517,259.000160
19.592000,0.925772,338.196615,258.563499
19.600000,0.641923,339.771146,260.285819
19.608000,0.687091,340.444297,259.555315
19.616000,0.674200,340.280746,259.158322
19.624000,0.835486,337.336677,261.730080
19.632000,0.799986,341.077908,265.911012
19.640000,0.858045,339.592942,260.749820
19.648000,0.916104,338.394033,256.787420
19.656000,0.722591,340.062000,261.325993
19.664000,0.916104,341.807891,259.653491
19.672000,0.948382,337.465171,264.077534
19.680000,0.841932,338.179115,265.595930
19.688000,0.909659,337.904105,253.848843
19.696000,1.080613,336.932496,256.488858
19.704000,1.048386,341.922373,259.645928
19.712000,1.087109,338.694133,260.851777
19.720000,1.087109,337.821977,264.838864
19.728000,1.112891,332.775383,263.005245
19.736000,1.148391,335.620706,261.651497
19.744000,1.161282,335.006737,260.179997
19.752000,1.203227,332.628176,263.524019
19.760000,1.167727,332.852108,263.205931
19.768000,1.064500,338.235524,263.079040
19.776000,1.132227,333.031139,257.643626
19.784000,1.048386,331.740866,262.803111
19.792000,1.125782,334.512259,258.131559
19.800000,0.993550,335.596886,261.724310
19.808000,0.964495,335.079660,256.785378
19.816000,0.932268,338.590997,256.387675
19.824000,0.990327,335.776212,261.307322
19.832000,0.880655,331.873586,259.504732
19.840000,0.787095,340.896666,258.973099
19.848000,0.896768,339.735499,259.515221
19.856000,0.903214,337.196709,261.441665
19.864000,0.854823,332.886381,255.186575
19.872000,0.970941,335.721452,265.217807
19.880000,0.909659,338.615513,253.878070
19.888000,0.887100,334.554457,261.089445
19.896000,1.064500,338.978382,258.716296
19.904000,1.016109,336.872077,260.185089
19.912000,0.929046,336.048698,266.509754
19.920000,1.003218,332.984159,262.398187
19.928000,0.990327,340.141240,261.608432
19.936000,1.019332,334.031040,263.596373
19.944000,1.009664,337.235363,263.952804
19.952000,1.058054,340.192325,264.468667
19.960000,1.167727,335.285983,270.683377
19.968000,1.090332,336.139263,268.118571
19.976000,0.938714,341.769756,264.923838
19.984000,0.945159,338.141690,265.701185
19.992000,1.112891,338.254538,262.454127
20.000000,1.029000,338.883693,261.607197
20.008000,0.961273,335.192247,256.070218
20.016000,1.012886,333.526145,259.098222
20.024000,1.070945,337.892368,263.651828
20.032000,1.025777,333.366670,263.648552
20.040000,0.990327,340.310628,261.253287
20.048000,0.929046,334.484727,262.787437
20.056000,0.974163,338.375577,262.886575
20.064000,1.041941,336.863293,265.923744
20.072000,1.196782,337.163441,266.675945
20.080000,1.096777,335.752481,261.991589
20.088000,1.125782,338.348846,260.849897
20.096000,1.087109,336.663018,265.481238
20.104000,1.096777,336.424788,265.971959
20.112000,0.958050,342.701686,267.657801
20.120000,0.961273,337.479579,259.448915
20.128000,0.883877,335.667593,267.224548
20.136000,0.948382,341.378461,258.556196
20.144000,1.012886,337.774899,263.281533
20.152000,1.006441,340.387127,263.437209
20.160000,1.035496,333.065488,269.323738
20.168000,0.961273,334.243773,264.065803
20.176000,1.070945,334.935627,261.913814
20.184000,1.083886,337.682470,262.648628
20.192000,0.977386,338.015311,266.736302
20.200000,1.229009,339.657701,267.797997
20.208000,2.035491,330.438672,264.650301
20.216000,2.409677,336.132128,267.403722
20.224000,1.896764,344.893326,265.039527
20.232000,0.974163,336.758824,259.524589
20.240000,0.803209,339.253072,264.764410
20.248000,0.729036,336.911105,261.835147
20.256000,0.874159,333.256883,259.767800
20.264000,0.725814,339.805084,266.571005
20.272000,0.880655,342.941881,266.619351
20.280000,0.870936,341.051659,262.815511
20.288000,0.854823,339.518310,263.570354
20.296000,0.970941,337.647247,262.439398
20.304000,1.048386,340.445648,258.711930
20.312000,1.003218,342.068226,264.520296
20.320000,0.970941,344.405864,263.560316
20.328000,1.100000,347.282648,256.319835
20.336000,1.054832,339.107742,264.309502
20.344000,1.090332,341.347464,256.564919
20.352000,1.090332,337.761505,261.453600
20.360000,1.212895,343.761248,260.702465
20.368000,1.106445,337.725926,258.751331
20.376000,1.212895,340.093697,257.199120
20.384000,1.138723,338.284088,260.413908
20.392000,1.245173,344.648559,263.855925
20.400000,1.270954,340.266540,265.045632
20.408000,1.267732,331.272713,255.971424
20.416000,1.200005,337.396718,259.640713
20.424000,1.300009,344.082393,256.347834
20.432000,1.154836,336.833733,259.692434
20.440000,1.119336,339.536839,260.361191
20.448000,1.258064,333.506969,261.252514
20.456000,1.119336,340.195882,259.588824
20.464000,1.125782,337.671416,256.011833
20.472000,1.022554,336.093166,265.377534
20.480000,0.999995,341.833945,263.165160
20.488000,0.996773,339.072636,260.246277
20.496000,1.122559,333.712477,259.980031
20.504000,0.993550,331.524939,260.879987
20.512000,1.109668,335.513935,257.744511
20.520000,1.006441,337.697031,257.097630
20.528000,1.148391,332.395781,261.478668
20.536000,1.112891,331.679436,259.661240
20.544000,1.235454,334.891236,261.457399
20.552000,1.125782,334.594911,259.136970
20.560000,1.219341,334.460735,262.090851
20.568000,1.167727,335.669070,256.621318
20.576000,1.154836,334.108263,263.128225
20.584000,1.029000,336.044480,257.507823
20.592000,1.090332,331.681227,257.495447
20.600000,1.193559,341.675677,259.074505
20.608000,1.022554,331.138223,261.027125
20.616000,1.125782,335.937370,262.061820
20.624000,1.029000,334.940413,263.122142
20.632000,1.077391,333.346269,258.263692
20.640000,1.177395,337.849057,258.916419
20.648000,1.129004,333.349030,261.174658
20.656000,1.164504,330.827090,263.570160
20.664000,1.090332,338.231487,258.668203
20.672000,0.970941,334.647109,265.196084
20.680000,1.064500,329.382170,258.896573
20.688000,1.164504,337.941557,268.532690
20.696000,1.096777,335.939388,263.604727
20.704000,1.258064,333.219367,260.515240
20.712000,1.203227,333.504059,268.166652
20.720000,1.219341,334.726427,269.446745
20.728000,1.122559,336.551738,268.698684
20.736000,1.083886,335.597482,265.015298
20.744000,0.980659,336.131442,266.000001
20.752000,1.177395,338.177017,265.140482
20.760000,1.129004,333.315626,262.033451
20.768000,1.025777,333.639713,263.478578
20.776000,1.158059,337.147489,259.318715
20.784000,1.206450,335.117747,268.221682
20.792000,1.138723,333.998954,259.263886
20.800000,1.154836,337.901227,260.534807
20.808000,1.338682,331.496757,261.952156
20.816000,1.351623,331.967340,262.251602
20.824000,1.422573,342.263996,256.362715
20.832000,1.951600,341.170142,265.004915
20.840000,2.725805,338.355411,262.581025
20.848000,2.987095,342.355959,262.968243
20.856000,1.993545,338.743029,262.195790
20.864000,1.196782,335.659459,265.144232
20.872000,1.287068,336.305750,258.470444
20.880000,1.093555,340.175121,260.154334
20.888000,1.203227,340.841040,264.249522
20.896000,1.229009,334.961577,262.319536
20.904000,1.129004,343.172712,263.151675
20.912000,1.306455,343.293384,266.275824
20.920000,1.245173,338.838555,266.121771
20.928000,1.303232,339.863110,265.379570
20.936000,1.235454,336.736050,261.653319
20.944000,1.109668,335.561710,274.026049
20.952000,1.161282,341.535482,262.987655
20.960000,1.138723,335.750881,264.619573
20.968000,1.090332,342.725557,264.827253
20.976000,1.041941,335.172823,261.992152
20.984000,0.987105,341.222790,265.203971
20.992000,1.190336,332.273456,265.870922
21.000000,1.106445,339.637675,263.731420
21.008000,1.080613,334.902788,265.842317
21.016000,0.945159,335.773219,264.609602
21.024000,0.987105,340.265880,266.089391
21.032000,0.990327,333.969179,264.993000
21.040000,0.903214,334.192952,265.789189
21.048000,0.858045,340.130560,262.272078
21.056000,0.806432,343.902910,262.903048
21.064000,0.703204,342.208022,266.327685
21.072000,0.680645,344.162109,258.591702
21.080000,0.587086,341.732758,262.488955
21.088000,0.467745,341.012798,265.904844
21.096000,0.654813,338.785774,260.554489
21.104000,0.522582,340.863181,262.864292
21.112000,0.516136,339.792293,264.738898
21.120000,0.412909,341.865506,261.226295
21.128000,0.561254,348.661334,257.991429
21.136000,0.490304,341.985529,259.677262
21.144000,0.516136,337.079795,259.301343
21.152000,0.709650,339.389800,259.105491
21.160000,0.590309,340.994663,261.239559
21.168000,0.577418,334.212029,259.034733
21.176000,0.716095,343.861979,261.679041
21.184000,0.596754,333.469388,263.067815
21.192000,0.635477,335.895685,264.418791
21.200000,0.812877,342.071409,265.335902
21.208000,0.780650,337.965480,260.159032
21.216000,0.658036,340.382847,264.260412
21.224000,0.690314,342.712661,264.870340
21.232000,0.738705,346.120263,259.513536
21.240000,0.796764,335.419436,267.130361
21.248000,0.680645,334.193631,262.432505
21.256000,0.806432,341.685164,259.835550
21.264000,0.774205,334.261873,250.554928
21.272000,0.835486,340.249067,263.989749
21.280000,0.712873,336.625086,264.468135
21.288000,0.819322,335.693065,252.993325
21.296000,0.719318,335.084331,259.492125
21.304000,0.767709,340.897638,260.382331
21.312000,0.887100,338.160813,256.371068
21.320000,0.658036,333.054619,260.539287
21.328000,0.774205,331.397530,263.384544
21.336000,0.709650,334.870615,263.444070
21.344000,0.716095,336.577536,262.889481
21.352000,0.787095,337.139392,260.507146
21.360000,0.922550,335.570347,261.175491
21.368000,0.799986,332.459092,263.282105
21.376000,0.906436,335.577332,260.139957
21.384000,0.841932,333.763639,261.759039
21.392000,0.777427,339.554876,257.586013
21.400000,0.729036,332.822087,256.307525
21.408000,0.561254,337.822266,260.620458
21.416000,0.729036,337.821736,264.289719
21.424000,0.754818,338.794623,262.373470
21.432000,0.832264,335.697838,263.001022
21.440000,0.764486,336.772419,265.641432
21.448000,0.703204,339.990240,260.065927
21.456000,0.822545,338.079966,265.173950
21.464000,0.870936,335.777838,259.437074
21.472000,0.719318,331.536943,263.299224
21.480000,0.767709,337.503516,262.614331
21.488000,1.254841,332.145568,264.657675
21.496000,1.829036,336.904516,263.010387
21.504000,2.190332,331.841020,270.864345
21.512000,1.554855,336.120596,266.142838
21.520000,0.819322,332.156294,261.744370
21.528000,0.693536,330.785080,263.032839
21.536000,0.764486,336.841993,262.078765
21.544000,0.683868,335.108900,263.848717
21.552000,0.674200,334.906417,259.559412
21.560000,0.761263,334.576333,257.380022
21.568000,0.787095,337.510481,260.882770
21.576000,0.783873,334.106106,258.897528
21.584000,0.899991,336.178032,258.805984
21.592000,0.922550,337.857921,264.052319
21.600000,0.941936,335.872362,266.656933
21.608000,0.925772,336.830194,261.981080
21.616000,0.983882,332.608719,261.330742
21.624000,1.061277,338.584113,261.253212
21.632000,1.048386,338.416065,264.750762
21.640000,1.080613,335.843524,259.376390
21.648000,0.967718,340.374299,264.427423
21.656000,1.045164,338.298148,265.562495
21.664000,1.206450,337.761458,263.523197
21.672000,1.167727,336.397918,265.276272
21.680000,1.196782,342.826169,261.659701
21.688000,1.074168,341.244507,267.700603
21.696000,1.241950,342.274826,262.942844
21.704000,1.125782,336.047918,265.470671
21.712000,1.229009,344.013168,264.699278
21.720000,1.116114,335.493978,268.454445
21.728000,1.012886,338.669346,259.355795
21.736000,0.848377,336.803691,260.355263
21.744000,0.880655,335.661360,262.959183
21.752000,0.874159,338.336400,264.731068
21.760000,0.812877,336.256312,267.775245
21.768000,0.867713,338.204038,265.600347
21.776000,0.629032,343.496942,265.505278
21.784000,0.816100,343.133550,262.129660
21.792000,0.699982,335.635178,267.244470
21.800000,0.648368,336.086389,264.491233
21.808000,0.887100,336.096922,260.326072
21.816000,0.729036,334.910581,265.043290
21.824000,0.683868,338.741646,263.230981
21.832000,0.861268,342.072688,270.739324
21.840000,0.774205,341.084904,262.516250
21.848000,0.854823,337.091935,263.565041
21.856000,0.796764,340.034633,265.383471
21.864000,0.816100,336.421798,259.875909
21.872000,0.887100,342.232283,262.686459
21.880000,0.822545,340.598219,262.415521
21.888000,0.899991,341.468755,261.410116
21.896000,0.845154,341.173237,263.646016
21.904000,0.890323,343.020641,259.390613
21.912000,0.983882,337.636718,262.714034
21.920000,0.932268,341.260197,263.507625
21.928000,0.945159,338.277075,262.669428
21.936000,0.954827,333.117791,257.352705
21.944000,0.954827,339.544125,260.084874
21.952000,0.822545,342.917565,264.014395
21.960000,0.883877,339.581171,256.870830
21.968000,0.803209,340.067547,264.655514
21.976000,0.906436,341.630385,261.884809
21.984000,0.925772,338.385268,260.440333
21.992000,0.919327,343.403673,261.398782
22.000000,0.874159,341.092873,260.084127
22.008000,0.970941,341.073618,262.546595
22.016000,1.029000,340.524035,264.294958
22.024000,0.896768,339.275486,260.589434
22.032000,0.890323,338.546876,257.059250
22.040000,0.906436,339.402898,257.496223
22.048000,1.006441,335.928012,257.929556
22.056000,0.999995,343.041551,261.752128
22.064000,0.909659,334.386182,257.171072
22.072000,0.980659,338.245820,262.464873
22.080000,0.812877,333.342900,261.535295
22.088000,0.858045,330.877713,259.182175
22.096000,0.861268,330.291676,261.780061
22.104000,0.961273,330.928118,260.638473
22.112000,0.812877,335.451936,258.229943
22.120000,0.909659,334.539618,259.442098
22.128000,0.845154,335.310948,260.879452
22.136000,0.858045,338.446800,258.346676
22.144000,0.893545,335.334097,264.116200
22.152000,1.003218,336.001592,257.595746
22.160000,0.854823,337.954953,260.465205
22.168000,1.109668,335.001924,260.994039
22.176000,1.522577,335.795783,259.175640
22.184000,2.096773,339.743506,261.817353
22.192000,2.132273,338.652382,261.515687
22.200000,1.164504,338.342727,260.206545
22.208000,0.777427,338.748050,263.771445
22.216000,0.703204,337.969957,266.079294
22.224000,0.687091,336.267792,264.056229
22.232000,0.787095,329.041051,260.898441
22.240000,0.787095,335.594622,260.924776
22.248000,0.783873,342.866076,258.354917
22.256000,0.890323,335.104175,261.167130
22.264000,0.870936,336.302614,263.867798
22.272000,0.880655,339.463077,262.152816
22.280000,0.816100,333.627075,264.158404
22.288000,1.025777,337.801004,261.498066
22.296000,0.935491,332.383717,257.700607
22.304000,0.999995,333.461280,260.547557
22.312000,1.048386,331.134160,262.375120
22.320000,1.138723,334.243135,264.448787
22.328000,0.993550,336.024303,265.199120
22.336000,1.161282,334.144415,256.423056
22.344000,1.048386,335.533741,260.758341
22.352000,1.116114,332.931427,264.418050
22.360000,1.180618,334.217089,261.011295
22.368000,1.296786,337.542057,266.564170
22.376000,1.232232,333.486203,262.700736
22.384000,1.232232,336.303047,257.029979
22.392000,1.193559,337.914587,260.118079
22.400000,1.106445,332.269368,266.524744
22.408000,1.083886,333.717039,262.617233
22.416000,1.116114,337.645816,267.928879
22.424000,1.016109,338.182112,258.788425
22.432000,1.138723,339.864824,263.207307
22.440000,0.841932,335.624825,262.389159
22.448000,1.016109,338.590318,267.191165
22.456000,0.883877,342.674149,263.708230
22.464000,0.903214,334.909504,264.988790
22.472000,0.883877,337.791714,271.356343
22.480000,0.880655,338.819185,265.201664
22.488000,1.045164,341.267380,263.139610
22.496000,0.987105,342.712320,264.947625
22.504000,1.032273,337.994517,259.042676
22.512000,0.961273,338.134322,268.968653
22.520000,1.025777,337.419184,265.489187
22.528000,1.045164,332.525833,268.479860
22.536000,1.064500,341.411102,262.441604
22.544000,0.961273,338.977818,266.061842
22.552000,1.093555,333.188914,263.187499
22.560000,1.045164,336.028899,265.001570
22.568000,1.135500,341.249868,257.811752
22.576000,1.141946,340.588071,263.503216
22.584000,1.074168,344.966060,256.001071
22.592000,1.141946,336.093635,263.979132
22.600000,1.054832,337.011017,266.327260
22.608000,1.019332,338.412698,265.144846
22.616000,1.103223,340.089308,259.554471
22.624000,1.100000,335.688495,262.379200
22.632000,1.119336,342.479919,266.478517
22.640000,1.058054,338.189375,267.563243
22.648000,1.087109,339.711601,260.600314
22.656000,1.167727,339.787647,260.442154
22.664000,1.125782,343.986070,263.129927
22.672000,1.087109,344.128756,256.955528
22.680000,1.100000,340.678407,265.971928
22.688000,1.187114,343.476271,263.988407
22.696000,1.170950,340.184554,267.616685
22.704000,1.245173,337.488552,265.173110
22.712000,1.303232,343.123755,259.524420
22.720000,1.129004,341.220928,262.099688
22.728000,1.170950,340.587269,260.553707
22.736000,1.077391,340.113599,261.185090
22.744000,1.090332,338.742835,255.416199
22.752000,1.051609,341.530458,260.269641
22.760000,1.090332,338.218925,258.837601
22.768000,1.129004,339.593239,260.184164
22.776000,1.070945,333.645869,262.041302
22.784000,1.054832,331.298720,258.498092
22.792000,1.258064,338.980181,260.449706
22.800000,1.074168,335.078157,261.951859
22.808000,1.177395,336.469437,258.419684
22.816000,0.980659,337.569613,265.272626
22.824000,1.325791,337.553189,257.038722
22.832000,1.774200,337.629938,261.465924
22.840000,2.412900,339.941481,260.858773
22.848000,2.271000,339.567002,261.501012
22.856000,1.241950,336.559379,265.258670
22.864000,0.935491,337.794681,262.672547
22.872000,0.893545,332.403242,262.323217
22.880000,0.816100,336.376300,259.807380
22.888000,0.845154,339.224539,260.541508
22.896000,0.896768,341.357184,260.770926
22.904000,1.064500,334.687058,260.992188
22.912000,0.909659,334.038700,261.947236
22.920000,1.006441,330.324870,258.217625
22.928000,0.896768,337.691954,260.223792
22.936000,0.974163,339.029096,259.032407
22.944000,1.100000,329.744535,253.877935
22.952000,1.122559,336.542149,262.617096
22.960000,1.083886,337.743541,261.330808
22.968000,1.154836,334.597842,257.362231
22.976000,1.180618,335.474473,261.703872
22.984000,1.138723,339.067587,260.160173
22.992000,1.196782,336.001321,261.933883
23.000000,1.141946,340.691825,266.725621
23.008000,1.093555,334.302029,258.736590
23.016000,1.151614,334.595818,262.464232
23.024000,1.287068,333.829305,265.001362
23.032000,1.229009,335.398360,262.860976
23.040000,1.225786,338.299846,265.723029
23.048000,1.193559,334.466329,264.305531
23.056000,1.248396,336.535431,260.595946
23.064000,1.151614,338.108491,265.209612
23.072000,1.116114,333.462024,264.003543
23.080000,1.032273,337.735913,264.463500
